Data Set 1:Time(s),Data Set 1:Force(N),Data Set 1:Respiration Rate(bpm),time
1721694218.9,3.3009185791015625,,0.0
1721694218.95,3.2651519775390625,,0.05
1721694219.0,3.221717834472656,,0.1
1721694219.05,3.1552886962890625,,0.15
1721694219.1,3.1195144653320312,,0.2
1721694219.15,3.0633087158203125,,0.25
1721694219.2,3.0249786376953125,,0.3
1721694219.25,2.9892120361328125,,0.35
1721694219.3,2.9687728881835938,,0.4
1721694219.35,2.874237060546875,,0.45
1721694219.4,2.782257080078125,,0.5
1721694219.45,2.697944641113281,,0.55
1721694219.5,2.6749496459960938,,0.6
1721694219.55,2.634063720703125,,0.65
1721694219.6,2.6085205078125,,0.7
1721694219.65,2.575302124023437,,0.75
1721694219.7,2.542083740234375,,0.8
1721694219.75,2.4526596069335938,,0.85
1721694219.8,2.38623046875,,0.9
1721694219.85,2.3121337890625,,0.95
1721694219.9,2.25848388671875,,1.0
1721694219.95,2.2022705078125,,1.05
1721694220.0,2.192054748535156,,1.1
1721694220.05,2.1971588134765625,,1.15
1721694220.1,2.192054748535156,,1.2
1721694220.15,2.14862060546875,,1.25
1721694220.2,2.128173828125,,1.3
1721694220.25,2.102630615234375,,1.35
1721694220.3,2.082183837890625,,1.4
1721694220.35,2.0617446899414062,,1.45
1721694220.4,2.0515289306640625,,1.5
1721694220.45,2.0413055419921875,,1.55
1721694220.5,2.0259780883789062,,1.6
1721694220.55,2.0029830932617188,,1.65
1721694220.6,2.0055389404296875,,1.7
1721694220.65,2.0157546997070312,,1.75
1721694220.7,2.0131988525390625,,1.8
1721694220.75,2.0055389404296875,,1.85
1721694220.8,1.9978713989257808,,1.9
1721694220.85,1.9850997924804688,,1.95
1721694220.9,1.9774322509765625,,2.0
1721694220.95,1.969764709472656,,2.05
1721694221.0,1.9672088623046875,,2.1
1721694221.05,1.9595489501953125,,2.15
1721694221.1,1.9595489501953125,,2.2
1721694221.15,1.96466064453125,,2.25
1721694221.2,1.9748764038085933,,2.3
1721694221.25,1.992759704589844,,2.35
1721694221.3,2.0131988525390625,,2.4
1721694221.35,2.0515289306640625,,2.45
1721694221.4,2.0872955322265625,,2.5
1721694221.45,2.1435089111328125,,2.55
1721694221.5,2.1894989013671875,,2.6
1721694221.55,2.3274688720703125,,2.65
1721694221.6,2.4220046997070312,,2.7
1721694221.65,2.4833221435546875,,2.75
1721694221.7,2.488433837890625,,2.8
1721694221.75,2.485877990722656,,2.85
1721694221.8,2.4909896850585938,,2.9
1721694221.85,2.524200439453125,,2.95
1721694221.9,2.5727462768554688,,3.0
1721694221.95,2.6391754150390625,,3.05
1721694222.0,2.6647262573242188,,3.1
1721694222.05,2.782257080078125,,3.15
1721694222.1,2.930450439453125,,3.2
1721694222.15,3.1961669921875,,3.25
1721694222.2,3.369903564453125,,3.3
1721694222.25,3.5768585205078125,,3.35
1721694222.3,3.7046127319335938,,3.4
1721694222.35,3.8630218505859375,,3.45
1721694222.4,3.919235229492187,,3.5
1721694222.45,4.000991821289063,,3.55
1721694222.5,4.09808349609375,,3.6
1721694222.55,4.236053466796875,,3.65
1721694222.6,4.256492614746094,,3.7
1721694222.65,4.233497619628906,,3.75
1721694222.7,4.251380920410156,,3.8
1721694222.75,4.292259216308594,,3.85
1721694222.8,4.215614318847656,,3.9
1721694222.85,3.9243392944335938,,3.95
1721694222.9,3.7812652587890634,,4.0
1721694222.95,3.748046875,,4.05
1721694223.0,3.8017044067382817,,4.1
1721694223.05,3.8885726928710938,,4.15
1721694223.1,3.873245239257813,,4.2
1721694223.15,3.7889251708984375,,4.25
1721694223.2,3.76593017578125,,4.3
1721694223.25,3.7863693237304688,,4.35
1721694223.3,3.8246994018554688,,4.4
1721694223.35,3.8987884521484375,,4.45
1721694223.4,3.880905151367187,,4.5
1721694223.45,3.806808471679687,,4.55
1721694223.5,3.8221435546875,,4.6
1721694223.55,3.916679382324219,,4.65
1721694223.6,3.9524459838867183,,4.7
1721694223.65,3.921783447265625,,4.75
1721694223.7,3.8885726928710938,,4.8
1721694223.75,3.85791015625,,4.85
1721694223.8,3.8527984619140634,,4.9
1721694223.85,3.850250244140625,,4.95
1721694223.9,3.845138549804687,,5.0
1721694223.95,3.806808471679687,,5.05
1721694224.0,3.760818481445313,,5.1
1721694224.05,3.7429351806640634,,5.15
1721694224.1,3.796592712402344,,5.2
1721694224.15,3.919235229492187,,5.25
1721694224.2,3.9728851318359375,,5.3
1721694224.25,3.980552673339844,,5.35
1721694224.3,3.9703292846679688,,5.4
1721694224.35,3.977996826171875,,5.45
1721694224.4,3.985664367675781,,5.5
1721694224.45,3.9728851318359375,,5.55
1721694224.5,3.9268951416015625,,5.6
1721694224.55,3.8553543090820312,,5.65
1721694224.6,3.8604660034179688,,5.7
1721694224.65,3.906455993652344,,5.75
1721694224.7,3.9345626831054688,,5.8
1721694224.75,3.942230224609375,,5.85
1721694224.8,3.9268951416015625,,5.9
1721694224.85,3.87579345703125,,5.95
1721694224.9,3.834915161132813,,6.0
1721694224.95,3.7914810180664062,,6.05
1721694225.0,3.776153564453125,,6.1
1721694225.05,3.7403793334960938,,6.15
1721694225.1,3.69183349609375,,6.2
1721694225.15,3.65606689453125,,6.25
1721694225.2,3.6790618896484375,,6.3
1721694225.25,3.7148284912109375,,6.35
1721694225.3,3.7071685791015625,,6.4
1721694225.35,3.6713943481445312,,6.45
1721694225.4,3.645843505859375,,6.5
1721694225.45,3.6049652099609375,,6.55
1721694225.5,3.569198608398437,,6.6
1721694225.55,3.5564193725585938,,6.65
1721694225.6,3.5870819091796875,,6.7
1721694225.65,3.5947494506835938,,6.75
1721694225.7,3.569198608398437,,6.8
1721694225.75,3.5615310668945312,,6.85
1721694225.8,3.574310302734375,,6.9
1721694225.85,3.658622741699219,,6.95
1721694225.9,3.7863693237304688,,7.0
1721694225.95,4.016319274902344,,7.05
1721694226.0,4.169624328613281,,7.1
1721694226.05,4.412345886230469,,7.15
1721694226.1,4.61164093017578,,7.2
1721694226.15,4.997444152832031,,7.25
1721694226.2,5.217170715332031,,7.3
1721694226.25,5.314262390136719,,7.35
1721694226.3,5.171180725097656,,7.4
1721694226.35,4.803260803222656,,7.45
1721694226.4,4.647407531738281,,7.5
1721694226.45,4.555427551269531,,7.55
1721694226.5,4.499214172363281,,7.6
1721694226.55,4.420013427734375,,7.65
1721694226.6,4.371467590332031,,7.7
1721694226.65,4.2948150634765625,,7.75
1721694226.7,4.271820068359375,,7.8
1721694226.75,4.292259216308594,,7.85
1721694226.8,4.2667083740234375,,7.9
1721694226.85,4.200279235839844,,7.95
1721694226.9,4.20539093017578,,8.0
1721694226.95,4.251380920410156,,8.05
1721694227.0,4.26416015625,10.26694107055664,8.1
1721694227.05,4.236053466796875,,8.15
1721694227.1,4.218170166015625,,8.2
1721694227.15,4.218170166015625,,8.25
1721694227.2,4.20794677734375,,8.3
1721694227.25,4.159400939941406,,8.35
1721694227.3,4.13385009765625,,8.4
1721694227.35,4.029098510742188,,8.45
1721694227.4,3.909011840820313,,8.5
1721694227.45,3.7889251708984375,,8.55
1721694227.5,3.776153564453125,,8.6
1721694227.55,3.8221435546875,,8.65
1721694227.6,3.845138549804687,,8.7
1721694227.65,3.8221435546875,,8.75
1721694227.7,3.771041870117187,,8.8
1721694227.75,3.661178588867187,,8.85
1721694227.8,3.6024093627929688,,8.9
1721694227.85,3.5487594604492188,,8.95
1721694227.9,3.54620361328125,,9.0
1721694227.95,3.5768585205078125,,9.05
1721694228.0,3.607521057128906,,9.1
1721694228.05,3.69183349609375,,9.15
1721694228.1,3.7506027221679688,,9.2
1721694228.15,3.7889251708984375,,9.25
1721694228.2,3.7812652587890634,,9.3
1721694228.25,3.737823486328125,,9.35
1721694228.3,3.7046127319335938,,9.4
1721694228.35,3.65606689453125,,9.45
1721694228.4,3.627960205078125,,9.5
1721694228.45,3.615188598632813,,9.55
1721694228.5,3.617744445800781,,9.6
1721694228.55,3.574310302734375,,9.65
1721694228.6,3.5410919189453125,,9.7
1721694228.65,3.5487594604492188,,9.75
1721694228.7,3.5640869140625,,9.8
1721694228.75,3.5615310668945312,,9.85
1721694228.8,3.54620361328125,,9.9
1721694228.85,3.530868530273437,,9.95
1721694228.9,3.502769470214844,,10.0
1721694228.95,3.4235610961914062,,10.05
1721694229.0,3.380126953125,,10.1
1721694229.05,3.3750152587890625,,10.15
1721694229.1,3.3775711059570312,,10.2
1721694229.15,3.3724594116210938,,10.25
1721694229.2,3.3928985595703125,,10.3
1721694229.25,3.4542236328125,,10.35
1721694229.3,3.500213623046875,,10.4
1721694229.35,3.535980224609375,,10.45
1721694229.4,3.5589752197265625,,10.5
1721694229.45,3.592193603515625,,10.55
1721694229.5,3.58197021484375,,10.6
1721694229.55,3.5334243774414062,,10.65
1721694229.6,3.5232086181640625,,10.7
1721694229.65,3.5615310668945312,,10.75
1721694229.7,3.5717544555664062,,10.8
1721694229.75,3.5410919189453125,,10.85
1721694229.8,3.5334243774414062,,10.9
1721694229.85,3.5717544555664062,,10.95
1721694229.9,3.6407394409179688,,11.0
1721694229.95,3.7071685791015625,,11.05
1721694230.0,3.7046127319335938,,11.1
1721694230.05,3.7071685791015625,,11.15
1721694230.1,3.699501037597656,,11.2
1721694230.15,3.65606689453125,,11.25
1721694230.2,3.6330718994140634,,11.3
1721694230.25,3.5870819091796875,,11.35
1721694230.3,3.5104293823242188,,11.4
1721694230.35,3.359687805175781,,11.45
1721694230.4,3.2830352783203125,,11.5
1721694230.45,3.260040283203125,,11.55
1721694230.5,3.2932586669921875,,11.6
1721694230.55,3.3366928100585938,,11.65
1721694230.6,3.3724594116210938,,11.7
1721694230.65,3.5129852294921875,,11.75
1721694230.7,3.684173583984375,,11.8
1721694230.75,3.985664367675781,,11.85
1721694230.8,4.2028350830078125,,11.9
1721694230.85,4.565643310546875,,11.95
1721694230.9,4.767494201660156,,12.0
1721694230.95,5.007659912109375,,12.05
1721694231.0,5.135414123535156,,12.1
1721694231.05,5.209510803222656,,12.15
1721694231.1,5.171180725097656,,12.2
1721694231.15,4.959114074707031,,12.25
1721694231.2,4.7828216552734375,,12.3
1721694231.25,4.596305847167969,,12.35
1721694231.3,4.537544250488281,,12.4
1721694231.35,4.468559265136719,,12.45
1721694231.4,4.445564270019531,,12.5
1721694231.45,4.4097900390625,,12.55
1721694231.5,4.3331451416015625,,12.6
1721694231.55,4.233497619628906,,12.65
1721694231.6,4.213058471679688,,12.7
1721694231.65,4.225830078125,,12.75
1721694231.7,4.238609313964844,,12.8
1721694231.75,4.210502624511719,,12.85
1721694231.8,4.1900634765625,,12.9
1721694231.85,4.164512634277344,,12.95
1721694231.9,4.13385009765625,,13.0
1721694231.95,4.0802001953125,,13.05
1721694232.0,4.072532653808594,,13.1
1721694232.05,4.062309265136719,,13.15
1721694232.1,4.02398681640625,,13.2
1721694232.15,3.980552673339844,,13.25
1721694232.2,3.980552673339844,,13.3
1721694232.25,3.995880126953125,,13.35
1721694232.3,3.995880126953125,,13.4
1721694232.35,3.980552673339844,,13.45
1721694232.4,3.985664367675781,,13.5
1721694232.45,3.980552673339844,,13.55
1721694232.5,3.9371185302734375,,13.6
1721694232.55,3.845138549804687,,13.65
1721694232.6,3.7812652587890634,,13.7
1721694232.65,3.658622741699219,,13.75
1721694232.7,3.5973052978515625,,13.8
1721694232.75,3.589637756347656,,13.85
1721694232.8,3.599853515625,,13.9
1721694232.85,3.6049652099609375,,13.95
1721694232.9,3.607521057128906,,14.0
1721694232.95,3.622848510742187,,14.05
1721694233.0,3.6356277465820312,,14.1
1721694233.05,3.617744445800781,,14.15
1721694233.1,3.5947494506835938,,14.2
1721694233.15,3.5564193725585938,,14.25
1721694233.2,3.502769470214844,,14.3
1721694233.25,3.385238647460937,,14.35
1721694233.3,3.3673553466796875,,14.4
1721694233.35,3.4669952392578125,,14.45
1721694233.4,3.5334243774414062,,14.5
1721694233.45,3.5257644653320312,,14.55
1721694233.5,3.479774475097656,,14.6
1721694233.55,3.4158935546875,,14.65
1721694233.6,3.369903564453125,,14.7
1721694233.65,3.277923583984375,,14.75
1721694233.7,3.2396011352539062,,14.8
1721694233.75,3.2191619873046875,,14.85
1721694233.8,3.211494445800781,,14.9
1721694233.85,3.147621154785156,,14.95
1721694233.9,3.0990753173828125,,15.0
1721694233.95,3.10418701171875,,15.05
1721694234.0,3.1220703125,,15.1
1721694234.05,3.101631164550781,,15.15
1721694234.1,3.0837478637695312,,15.2
1721694234.15,3.1297378540039062,,15.25
1721694234.2,3.160400390625,,15.3
1721694234.25,3.134849548339844,,15.35
1721694234.3,3.1246261596679688,,15.4
1721694234.35,3.170616149902344,,15.45
1721694234.4,3.221717834472656,,15.5
1721694234.45,3.295814514160156,,15.55
1721694234.5,3.3366928100585938,,15.6
1721694234.55,3.4465560913085938,,15.65
1721694234.6,3.5640869140625,,15.7
1721694234.65,3.8017044067382817,,15.75
1721694234.7,3.916679382324219,,15.8
1721694234.75,3.9396743774414062,,15.85
1721694234.8,3.903900146484375,,15.9
1721694234.85,3.865577697753906,,15.95
1721694234.9,3.84002685546875,,16.0
1721694234.95,3.76593017578125,,16.05
1721694235.0,3.73016357421875,,16.1
1721694235.05,3.696945190429687,,16.15
1721694235.1,3.6688385009765625,,16.2
1721694235.15,3.6432952880859375,,16.25
1721694235.2,3.645843505859375,,16.3
1721694235.25,3.661178588867187,,16.35
1721694235.3,3.6713943481445312,,16.4
1721694235.35,3.663734436035156,,16.45
1721694235.4,3.6535110473632817,,16.5
1721694235.45,3.627960205078125,,16.55
1721694235.5,3.589637756347656,,16.6
1721694235.55,3.535980224609375,,16.65
1721694235.6,3.5334243774414062,,16.7
1721694235.65,3.5283203125,,16.75
1721694235.7,3.535980224609375,,16.8
1721694235.75,3.599853515625,,16.85
1721694235.8,3.63818359375,,16.9
1721694235.85,3.6407394409179688,,16.95
1721694235.9,3.599853515625,,17.0
1721694235.95,3.515541076660156,,17.05
1721694236.0,3.4542236328125,,17.1
1721694236.05,3.3775711059570312,,17.15
1721694236.1,3.36224365234375,,17.2
1721694236.15,3.421005249023437,,17.25
1721694236.2,3.502769470214844,,17.3
1721694236.25,3.569198608398437,,17.35
1721694236.3,3.5564193725585938,,17.4
1721694236.35,3.5410919189453125,,17.45
1721694236.4,3.543647766113281,,17.5
1721694236.45,3.5206527709960938,,17.55
1721694236.5,3.469551086425781,,17.6
1721694236.55,3.390350341796875,,17.65
1721694236.6,3.3494644165039062,,17.7
1721694236.65,3.295814514160156,,17.75
1721694236.7,3.277923583984375,,17.8
1721694236.75,3.2677078247070312,,17.85
1721694236.8,3.260040283203125,,17.9
1721694236.85,3.2293853759765625,,17.95
1721694236.9,3.1884994506835938,,18.0
1721694236.95,3.150177001953125,,18.05
1721694237.0,3.1425094604492188,11.50527286529541,18.1
1721694237.05,3.1425094604492188,,18.15
1721694237.1,3.1246261596679688,,18.2
1721694237.15,3.091415405273437,,18.25
1721694237.2,3.0863037109375,,18.3
1721694237.25,3.065864562988281,,18.35
1721694237.3,3.037757873535156,,18.4
1721694237.35,2.9968795776367188,,18.45
1721694237.4,2.978988647460937,,18.5
1721694237.45,2.9457778930664062,,18.55
1721694237.5,2.912559509277344,,18.6
1721694237.55,2.889564514160156,,18.65
1721694237.6,2.889564514160156,,18.7
1721694237.65,2.912559509277344,,18.75
1721694237.7,2.927894592285156,,18.8
1721694237.75,2.9457778930664062,,18.85
1721694237.8,2.9534454345703125,,18.9
1721694237.85,2.943222045898437,,18.95
1721694237.9,2.930450439453125,,19.0
1721694237.95,2.9329986572265625,,19.05
1721694238.0,2.95599365234375,,19.1
1721694238.05,2.9815444946289062,,19.15
1721694238.1,2.991767883300781,,19.2
1721694238.15,3.037757873535156,,19.25
1721694238.2,3.096519470214844,,19.3
1721694238.25,3.2268295288085938,,19.35
1721694238.3,3.3213653564453125,,19.4
1721694238.35,3.4874343872070312,,19.45
1721694238.4,3.6330718994140634,,19.5
1721694238.45,3.850250244140625,,19.55
1721694238.5,3.9396743774414062,,19.6
1721694238.55,3.9524459838867183,,19.65
1721694238.6,3.919235229492187,,19.7
1721694238.65,3.880905151367187,,19.75
1721694238.7,3.8604660034179688,,19.8
1721694238.75,3.8195877075195312,,19.85
1721694238.8,3.794036865234375,,19.9
1721694238.85,3.771041870117187,,19.95
1721694238.9,3.748046875,,20.0
1721694238.95,3.6943893432617183,,20.05
1721694239.0,3.666290283203125,,20.1
1721694239.05,3.6330718994140634,,20.15
1721694239.1,3.6024093627929688,,20.2
1721694239.15,3.5615310668945312,,20.25
1721694239.2,3.5666427612304688,,20.3
1721694239.25,3.58197021484375,,20.35
1721694239.3,3.574310302734375,,20.4
1721694239.35,3.5768585205078125,,20.45
1721694239.4,3.6049652099609375,,20.5
1721694239.45,3.65606689453125,,20.55
1721694239.5,3.6713943481445312,,20.6
1721694239.55,3.6739501953125,,20.65
1721694239.6,3.650955200195313,,20.7
1721694239.65,3.607521057128906,,20.75
1721694239.7,3.5973052978515625,,20.8
1721694239.75,3.5973052978515625,,20.85
1721694239.8,3.599853515625,,20.9
1721694239.85,3.5053253173828125,,20.95
1721694239.9,3.3928985595703125,,21.0
1721694239.95,3.318809509277344,,21.05
1721694240.0,3.3443603515625,,21.1
1721694240.05,3.3750152587890625,,21.15
1721694240.1,3.3443603515625,,21.2
1721694240.15,3.2728195190429688,,21.25
1721694240.2,3.257484436035156,,21.3
1721694240.25,3.257484436035156,,21.35
1721694240.3,3.2472686767578125,,21.4
1721694240.35,3.244712829589844,,21.45
1721694240.4,3.2728195190429688,,21.5
1721694240.45,3.295814514160156,,21.55
1721694240.5,3.285591125488281,,21.6
1721694240.55,3.3724594116210938,,21.65
1721694240.6,3.5129852294921875,,21.7
1721694240.65,3.661178588867187,,21.75
1721694240.7,3.645843505859375,,21.8
1721694240.75,3.502769470214844,,21.85
1721694240.8,3.3775711059570312,,21.9
1721694240.85,3.201278686523437,,21.95
1721694240.9,3.1195144653320312,,22.0
1721694240.95,3.053085327148437,,22.05
1721694241.0,3.01220703125,,22.1
1721694241.05,2.9329986572265625,,22.15
1721694241.1,2.881904602050781,,22.2
1721694241.15,2.8589096069335938,,22.25
1721694241.2,2.869125366210937,,22.3
1721694241.25,2.869125366210937,,22.35
1721694241.3,2.8614654541015625,,22.4
1721694241.35,2.84613037109375,,22.45
1721694241.4,2.838470458984375,,22.5
1721694241.45,2.8231353759765625,,22.55
1721694241.5,2.802696228027344,,22.6
1721694241.55,2.782257080078125,,22.65
1721694241.6,2.7873687744140625,,22.7
1721694241.65,2.800140380859375,,22.75
1721694241.7,2.7848129272460938,,22.8
1721694241.75,2.7413787841796875,,22.85
1721694241.8,2.733711242675781,,22.9
1721694241.85,2.759262084960937,,22.95
1721694241.9,2.7618179321289062,,23.0
1721694241.95,2.743934631347656,,23.05
1721694242.0,2.728599548339844,,23.1
1721694242.05,2.705604553222656,,23.15
1721694242.1,2.6826095581054688,,23.2
1721694242.15,2.6749496459960938,,23.25
1721694242.2,2.728599548339844,,23.3
1721694242.25,2.8512420654296875,,23.35
1721694242.3,2.88446044921875,,23.4
1721694242.35,2.889564514160156,,23.45
1721694242.4,2.9227828979492188,,23.5
1721694242.45,3.022430419921875,,23.55
1721694242.5,3.1067428588867188,,23.6
1721694242.55,3.224273681640625,,23.65
1721694242.6,3.28814697265625,,23.7
1721694242.65,3.354576110839844,,23.75
1721694242.7,3.359687805175781,,23.8
1721694242.75,3.4107894897460938,,23.85
1721694242.8,3.5104293823242188,,23.9
1721694242.85,3.6356277465820312,,23.95
1721694242.9,3.627960205078125,,24.0
1721694242.95,3.535980224609375,,24.05
1721694243.0,3.515541076660156,,24.1
1721694243.05,3.538536071777344,,24.15
1721694243.1,3.5410919189453125,,24.2
1721694243.15,3.515541076660156,,24.25
1721694243.2,3.502769470214844,,24.3
1721694243.25,3.5053253173828125,,24.35
1721694243.3,3.4925460815429688,,24.4
1721694243.35,3.444000244140625,,24.45
1721694243.4,3.4184494018554688,,24.5
1721694243.45,3.4031219482421875,,24.55
1721694243.5,3.3724594116210938,,24.6
1721694243.55,3.3213653564453125,,24.65
1721694243.6,3.334136962890625,,24.7
1721694243.65,3.4184494018554688,,24.75
1721694243.7,3.464439392089844,,24.8
1721694243.75,3.461883544921875,,24.85
1721694243.8,3.444000244140625,,24.9
1721694243.85,3.4184494018554688,,24.95
1721694243.9,3.4005661010742188,,25.0
1721694243.95,3.385238647460937,,25.05
1721694244.0,3.395454406738281,,25.1
1721694244.05,3.4235610961914062,,25.15
1721694244.1,3.4184494018554688,,25.2
1721694244.15,3.390350341796875,,25.25
1721694244.2,3.3928985595703125,,25.3
1721694244.25,3.428672790527344,,25.35
1721694244.3,3.459335327148437,,25.4
1721694244.35,3.4746627807617188,,25.45
1721694244.4,3.4669952392578125,,25.5
1721694244.45,3.4491119384765625,,25.55
1721694244.5,3.433784484863281,,25.6
1721694244.55,3.405677795410156,,25.65
1721694244.6,3.369903564453125,,25.7
1721694244.65,3.3418045043945312,,25.75
1721694244.7,3.3418045043945312,,25.8
1721694244.75,3.3418045043945312,,25.85
1721694244.8,3.3494644165039062,,25.9
1721694244.85,3.3647994995117188,,25.95
1721694244.9,3.3571319580078125,,26.0
1721694244.95,3.316253662109375,,26.05
1721694245.0,3.2830352783203125,,26.1
1721694245.05,3.2293853759765625,,26.15
1721694245.1,3.175727844238281,,26.2
1721694245.15,3.093963623046875,,26.25
