Data Set 1:Time(s),Data Set 1:Force(N),Data Set 1:Respiration Rate(bpm),time
1727553242.05,13.804527282714844,,0.0
1727553242.1,13.04058074951172,,0.05
1727553242.15,12.649665832519531,,0.1
1727553242.2,12.036468505859377,,0.15
1727553242.25,11.556129455566406,,0.2
1727553242.3,10.654212951660156,,0.25
1727553242.35,10.005241394042969,,0.3
1727553242.4,9.126319885253906,,0.35
1727553242.45,8.630653381347656,,0.4
1727553242.5,8.03533935546875,,0.45
1727553242.55,7.698074340820312,,0.5
1727553242.6,7.29949951171875,,0.55
1727553242.65,7.120643615722656,,0.6
1727553242.7,6.906028747558594,,0.65
1727553242.75,6.8166046142578125,,0.7
1727553242.8,6.78338623046875,,0.75
1727553242.85,6.768058776855469,,0.8
1727553242.9,6.727180480957031,,0.85
1727553242.95,6.701629638671875,,0.9
1727553243.0,6.683738708496094,,0.95
1727553243.05,6.719512939453125,,1.0
1727553243.1,6.834487915039063,,1.05
1727553243.15,6.923912048339844,,1.1
1727553243.2,7.056770324707031,,1.15
1727553243.25,7.141090393066406,,1.2
1727553243.3,7.250953674316406,,1.25
1727553243.35,7.26116943359375,,1.3
1727553243.4,7.1385345458984375,,1.35
1727553243.45,7.04144287109375,,1.4
1727553243.5,7.061882019042969,,1.45
1727553243.55,7.14875030517578,,1.5
1727553243.6,7.29949951171875,,1.55
1727553243.65,7.537109375,,1.6
1727553243.7,8.18096923828125,,1.65
1727553243.75,8.651092529296875,,1.7
1727553243.8,9.126319885253906,,1.75
1727553243.85,9.384376525878906,,1.8
1727553243.9,9.900489807128906,,1.85
1727553243.95,10.304176330566406,,1.9
1727553244.0,10.932708740234377,,1.95
1727553244.05,11.338951110839844,,2.0
1727553244.1,11.90105438232422,,2.05
1727553244.15,12.161659240722656,,2.1
1727553244.2,12.363510131835938,,2.15
1727553244.25,12.501480102539062,,2.2
1727553244.3,12.795303344726562,,2.25
1727553244.35,13.063575744628906,,2.3
1727553244.4,13.595016479492188,,2.35
1727553244.45,14.001258850097656,,2.4
1727553244.5,14.563362121582031,,2.45
1727553244.55,14.91339874267578,,2.5
1727553244.6,15.50615692138672,,2.55
1727553244.65,15.966056823730469,,2.6
1727553244.7,16.73511505126953,,2.65
1727553244.75,17.13880157470703,,2.7
1727553244.8,17.12347412109375,,2.75
1727553244.85,16.694229125976562,,2.8
1727553244.9,15.899627685546877,,2.85
1727553244.95,15.386070251464844,,2.9
1727553245.0,14.726882934570312,,2.95
1727553245.05,14.517372131347656,,3.0
1727553245.1,14.634902954101562,,3.05
1727553245.15,14.76520538330078,,3.1
1727553245.2,14.407508850097656,,3.15
1727553245.25,13.635894775390623,,3.2
1727553245.3,11.908714294433594,,3.25
1727553245.35,10.741081237792969,,3.3
1727553245.4,9.35626983642578,,3.35
1727553245.45,8.648536682128906,,3.4
1727553245.5,7.744064331054688,,3.45
1727553245.55,7.22795867919922,,3.5
1727553245.6,6.5585479736328125,,3.55
1727553245.65,6.165077209472656,,3.6
1727553245.7,5.6566314697265625,,3.65
1727553245.75,5.390914916992188,,3.7
1727553245.8,5.107307434082031,,3.75
1727553245.85,4.992332458496094,,3.8
1727553245.9,4.923347473144531,,3.85
1727553245.95,4.9259033203125,,3.9
1727553246.0,4.9770050048828125,,3.95
1727553246.05,5.094535827636719,,4.0
1727553246.1,5.521217346191406,,4.05
1727553246.15,5.909576416015625,,4.1
1727553246.2,6.4844512939453125,,4.15
1727553246.25,6.8702545166015625,,4.2
1727553246.3,7.529449462890625,,4.25
1727553246.35,8.009788513183594,,4.3
1727553246.4,8.773735046386719,,4.35
1727553246.45,9.338386535644531,,4.4
1727553246.5,10.268409729003906,,4.45
1727553246.55,10.774299621582031,,4.5
1727553246.6,11.361946105957031,,4.55
1727553246.65,11.809074401855469,,4.6
1727553246.7,12.590904235839844,,4.65
1727553246.75,13.165779113769531,,4.7
1727553246.8,14.080467224121094,,4.75
1727553246.85,14.708999633789062,,4.8
1727553246.9,15.621131896972656,,4.85
1727553246.95,16.208778381347656,,4.9
1727553247.0,16.985504150390625,,4.95
1727553247.05,17.261444091796875,,5.0
1727553247.1,17.2154541015625,,5.05
1727553247.15,16.97528076171875,,5.1
1727553247.2,16.364639282226562,,5.15
1727553247.25,15.889404296875,,5.2
1727553247.3,15.235328674316406,,5.25
1727553247.35,14.872520446777344,,5.3
1727553247.4,14.632347106933594,,5.35
1727553247.45,14.69110870361328,,5.4
1727553247.5,14.706443786621094,,5.45
1727553247.55,14.384513854980469,,5.5
1727553247.6,13.229652404785156,,5.55
1727553247.65,12.133560180664062,,5.6
1727553247.7,10.452369689941406,,5.65
1727553247.75,9.443138122558592,,5.7
1727553247.8,8.094100952148438,,5.75
1727553247.85,7.376144409179688,,5.8
1727553247.9,6.5866546630859375,,5.85
1727553247.95,6.2187347412109375,,5.9
1727553248.0,5.82781982421875,,5.95
1727553248.05,5.610641479492188,,6.0
1727553248.1,5.316818237304688,,6.05
1727553248.15,5.166069030761719,,6.1
1727553248.2,5.05109405517578,,6.15
1727553248.25,5.043434143066406,,6.2
1727553248.3,5.140525817871094,,6.25
1727553248.35,5.2197265625,,6.3
1727553248.4,5.296379089355469,,6.35
1727553248.45,5.38580322265625,,6.4
1727553248.5,5.651519775390625,,6.45
1727553248.55,5.8814697265625,,6.5
1727553248.6,6.236618041992188,,6.55
1727553248.65,6.545768737792969,,6.6
1727553248.7,7.161529541015625,,6.65
1727553248.75,7.603538513183594,,6.7
1727553248.8,8.262733459472656,,6.75
1727553248.85,8.709854125976562,,6.8
1727553248.9,9.425254821777344,,6.85
1727553248.95,9.969474792480469,,6.9
1727553249.0,10.71808624267578,,6.95
1727553249.05,11.170318603515623,,7.0
1727553249.1,11.975143432617188,,7.05
1727553249.15,12.588348388671877,,7.1
1727553249.2,13.623123168945312,,7.15
1727553249.25,14.358963012695312,,7.2
1727553249.3,15.368186950683594,,7.25
1727553249.35,15.840858459472656,,7.3
1727553249.4,16.18578338623047,,7.35
1727553249.45,16.198562622070312,,7.4
1727553249.5,15.863853454589844,,7.45
1727553249.55,15.483161926269531,,7.5
1727553249.6,14.698776245117188,,7.55
1727553249.65,14.047248840332031,,7.6
1727553249.7,13.411056518554688,,7.65
1727553249.75,13.40850067138672,,7.7
1727553249.8,13.423828125,,7.75
1727553249.85,12.989479064941406,,7.8
1727553249.9,11.681320190429688,,7.85
1727553249.95,10.68487548828125,,7.9
1727553250.0,9.346054077148438,27.40688705444336,7.95
1727553250.05,8.566780090332031,,8.0
1727553250.1,7.57799530029297,,8.05
1727553250.15,7.051658630371094,,8.1
1727553250.2,6.420578002929688,,8.15
1727553250.25,6.075653076171875,,8.2
1727553250.3,5.687294006347656,,8.25
1727553250.35,5.556983947753906,,8.3
1727553250.4,5.531440734863281,,8.35
1727553250.45,5.572319030761719,,8.4
1727553250.5,5.682182312011719,,8.45
1727553250.55,5.815040588378906,,8.5
1727553250.6,6.1804046630859375,,8.55
1727553250.65,6.576431274414063,,8.6
1727553250.7,7.325050354003905,,8.65
1727553250.75,7.892257690429688,,8.7
1727553250.8,8.868263244628906,,8.75
1727553250.85,9.555564880371092,,8.8
1727553250.9,10.541793823242188,,8.85
1727553250.95,11.170318603515623,,8.9
1727553251.0,12.07990264892578,,8.95
1727553251.05,12.644554138183594,,9.0
1727553251.1,13.508148193359377,,9.05
1727553251.15,14.121345520019531,,9.1
1727553251.2,15.084579467773438,,9.15
1727553251.25,15.679893493652344,,9.2
1727553251.3,16.372299194335938,,9.25
1727553251.35,16.763214111328125,,9.3
1727553251.4,17.279327392578125,,9.35
1727553251.45,17.532272338867188,,9.4
1727553251.5,17.67279815673828,,9.45
1727553251.55,17.534828186035156,,9.5
1727553251.6,17.02893829345703,,9.55
1727553251.65,16.561370849609375,,9.6
1727553251.7,15.710556030273438,,9.65
1727553251.75,15.140792846679688,,9.7
1727553251.8,14.706443786621094,,9.75
1727553251.85,14.652786254882812,,9.8
1727553251.9,14.17755889892578,,9.85
1727553251.95,13.446823120117188,,9.9
1727553252.0,12.039024353027344,,9.95
1727553252.05,11.083450317382812,,10.0
1727553252.1,9.72418975830078,,10.05
1727553252.15,8.865715026855469,,10.1
1727553252.2,7.764503479003905,,10.15
1727553252.25,7.18962860107422,,10.2
1727553252.3,6.566215515136719,,10.25
1727553252.35,6.285163879394531,,10.3
1727553252.4,6.004112243652344,,10.35
1727553252.45,5.8865814208984375,,10.4
1727553252.5,5.792045593261719,,10.45
1727553252.55,5.78948974609375,,10.5
1727553252.6,5.82526397705078,,10.55
1727553252.65,5.884025573730469,,10.6
1727553252.7,6.037330627441406,,10.65
1727553252.75,6.1446380615234375,,10.7
1727553252.8,6.504890441894531,,10.75
1727553252.85,6.944351196289063,,10.8
1727553252.9,7.746620178222656,,10.85
1727553252.95,8.275505065917969,,10.9
1727553253.0,8.967910766601562,,10.95
1727553253.05,9.402259826660156,,11.0
1727553253.1,10.069114685058594,,11.05
1727553253.15,10.488136291503906,,11.1
1727553253.2,11.080894470214844,,11.15
1727553253.25,11.545906066894531,,11.2
1727553253.3,12.506584167480469,,11.25
1727553253.35,13.18877410888672,,11.3
1727553253.4,14.088134765625,,11.35
1727553253.45,14.688560485839844,,11.4
1727553253.5,15.552146911621094,,11.45
1727553253.55,16.042709350585938,,11.5
1727553253.6,16.505165100097656,,11.55
1727553253.65,16.543487548828125,,11.6
1727553253.7,16.180679321289062,,11.65
1727553253.75,15.769325256347656,,11.7
1727553253.8,15.074363708496094,,11.75
1727553253.85,14.604240417480469,,11.8
1727553253.9,14.02936553955078,,11.85
1727553253.95,13.74065399169922,,11.9
1727553254.0,13.050804138183594,,11.95
1727553254.05,12.26641845703125,,12.0
1727553254.1,10.917373657226562,,12.05
1727553254.15,10.09466552734375,,12.1
1727553254.2,8.965354919433594,,12.15
1727553254.25,8.25506591796875,,12.2
1727553254.3,7.394035339355469,,12.25
1727553254.35,6.982673645019531,,12.3
1727553254.4,6.5125579833984375,,12.35
1727553254.45,6.295379638671875,,12.4
