Data Set 1:Time(s),Data Set 1:Force(N),Data Set 1:Respiration Rate(bpm),time
1727565926.05,7.1461944580078125,,0.0
1727565926.1,7.0005645751953125,,0.05
1727565926.15,6.972457885742188,,0.1
1727565926.2,7.0184478759765625,,0.15
1727565926.25,7.1283111572265625,,0.2
1727565926.3,7.215179443359375,,0.25
1727565926.35,7.40936279296875,,0.3
1727565926.4,7.641868591308594,,0.35
1727565926.45,8.068550109863281,,0.4
1727565926.5,8.326606750488281,,0.45
1727565926.55,8.610214233398438,,0.5
1727565926.6,8.748184204101562,,0.55
1727565926.65,8.932144165039062,,0.6
1727565926.7,9.126319885253906,,0.65
1727565926.75,9.563224792480469,,0.7
1727565926.8,9.892822265625,,0.75
1727565926.85,10.406379699707031,,0.8
1727565926.9,10.741081237792969,,0.85
1727565926.95,11.241859436035156,,0.9
1727565927.0,11.64299774169922,,0.95
1727565927.05,12.455490112304688,,1.0
1727565927.1,13.089126586914062,,1.05
1727565927.15,13.947608947753906,,1.1
1727565927.2,14.376846313476562,,1.15
1727565927.25,14.76776123046875,,1.2
1727565927.3,14.66045379638672,,1.25
1727565927.35,13.827522277832031,,1.3
1727565927.4,13.250091552734377,,1.35
1727565927.45,12.74420166015625,,1.4
1727565927.5,12.496368408203123,,1.45
1727565927.55,12.072235107421877,,1.5
1727565927.6,11.763084411621094,,1.55
1727565927.65,11.241859436035156,,1.6
1727565927.7,10.822845458984377,,1.65
1727565927.75,10.028236389160156,,1.7
1727565927.8,9.476356506347656,,1.75
1727565927.85,8.906593322753906,,1.8
1727565927.9,8.645980834960938,,1.85
1727565927.95,8.295944213867188,,1.9
1727565928.0,8.14520263671875,14.363884925842283,1.95
1727565928.05,7.99700927734375,,2.0
1727565928.1,7.905029296875,,2.05
1727565928.15,7.782394409179688,,2.1
1727565928.2,7.669975280761719,,2.15
1727565928.25,7.42724609375,,2.2
1727565928.3,7.276504516601563,,2.25
1727565928.35,7.066993713378906,,2.3
1727565928.4,6.941795349121094,,2.35
1727565928.45,6.826820373535156,,2.4
1727565928.5,6.681190490722656,,2.45
1727565928.55,6.446128845214844,,2.5
1727565928.6,6.37969970703125,,2.55
1727565928.65,6.241729736328125,,2.6
1727565928.7,6.0705413818359375,,2.65
1727565928.75,5.807380676269531,,2.7
1727565928.8,5.664299011230469,,2.75
1727565928.85,5.5518798828125,,2.8
1727565928.9,5.56720733642578,,2.85
1727565928.95,5.60552978515625,,2.9
1727565929.0,5.582534790039063,,2.95
1727565929.05,5.531440734863281,,3.0
1727565929.1,5.49822235107422,,3.05
1727565929.15,5.4369049072265625,,3.1
1727565929.2,5.447120666503906,,3.15
1727565929.25,5.620864868164063,,3.2
1727565929.3,5.794601440429688,,3.25
1727565929.35,5.993888854980469,,3.3
1727565929.4,6.073097229003906,,3.35
1727565929.45,6.244285583496094,,3.4
1727565929.5,6.443572998046875,,3.45
1727565929.55,6.824264526367188,,3.5
1727565929.6,7.125755310058594,,3.55
1727565929.65,7.600990295410157,,3.6
1727565929.7,7.899925231933594,,3.65
1727565929.75,8.334274291992188,,3.7
1727565929.8,8.630653381347656,,3.75
1727565929.85,9.14165496826172,,3.8
1727565929.9,9.568336486816406,,3.85
1727565929.95,10.380828857421877,,3.9
1727565930.0,11.129440307617188,,3.95
1727565930.05,12.182098388671877,,4.0
1727565930.1,12.519363403320312,,4.05
1727565930.15,12.805519104003906,,4.1
1727565930.2,13.043136596679688,,4.15
1727565930.25,13.311408996582031,,4.2
1727565930.3,13.431495666503906,,4.25
1727565930.35,13.546470642089844,,4.3
1727565930.4,13.58990478515625,,4.35
1727565930.45,13.538803100585938,,4.4
1727565930.5,13.329299926757812,,4.45
1727565930.55,13.030364990234377,,4.5
1727565930.6,12.940933227539062,,4.55
1727565930.65,12.78252410888672,,4.6
1727565930.7,12.629226684570312,,4.65
1727565930.75,12.148887634277344,,4.7
1727565930.8,11.505027770996094,,4.75
1727565930.85,10.393600463867188,,4.8
1727565930.9,9.885154724121092,,4.85
1727565930.95,9.346054077148438,,4.9
1727565931.0,8.9730224609375,,4.95
1727565931.05,8.500343322753906,,5.0
1727565931.1,8.321495056152344,,5.05
1727565931.15,8.257621765136719,,5.1
1727565931.2,8.303611755371094,,5.15
1727565931.25,8.556556701660156,,5.2
1727565931.3,8.653648376464844,,5.25
1727565931.35,8.436470031738281,,5.3
1727565931.4,8.25506591796875,,5.35
1727565931.45,8.037895202636719,,5.4
1727565931.5,7.968910217285157,,5.45
1727565931.55,7.96124267578125,,5.5
1727565931.6,7.894813537597656,,5.55
1727565931.65,7.692970275878905,,5.6
1727565931.7,7.5984344482421875,,5.65
1727565931.75,7.549888610839843,,5.7
1727565931.8,7.529449462890625,,5.75
1727565931.85,7.419578552246095,,5.8
1727565931.9,7.3224945068359375,,5.85
1727565931.95,7.202407836914063,,5.9
1727565932.0,7.135978698730469,,5.95
1727565932.05,7.1002044677734375,,6.0
1727565932.1,7.107872009277344,,6.05
1727565932.15,7.097648620605469,,6.1
1727565932.2,7.021003723144531,,6.15
1727565932.25,6.7782745361328125,,6.2
1727565932.3,6.630088806152344,,6.25
1727565932.35,6.550880432128906,,6.3
1727565932.4,6.550880432128906,,6.35
1727565932.45,6.532997131347656,,6.4
1727565932.5,6.527885437011719,,6.45
1727565932.55,6.630088806152344,,6.5
1727565932.6,6.8523712158203125,,6.55
1727565932.65,7.40936279296875,,6.6
1727565932.7,7.882034301757812,,6.65
1727565932.75,8.671531677246094,,6.7
1727565932.8,9.159538269042969,,6.75
1727565932.85,9.742080688476562,,6.8
1727565932.9,10.046119689941406,,6.85
1727565932.95,10.495803833007812,,6.9
1727565933.0,10.82794952392578,,6.95
1727565933.05,11.34406280517578,,7.0
1727565933.1,11.665992736816406,,7.05
1727565933.15,12.04412841796875,,7.1
1727565933.2,12.125892639160156,,7.15
1727565933.25,12.031356811523438,,7.2
1727565933.3,11.954704284667969,,7.25
1727565933.35,11.78863525390625,,7.3
1727565933.4,11.60211944580078,,7.35
1727565933.45,11.239303588867188,,7.4
1727565933.5,10.98125457763672,,7.45
1727565933.55,10.590339660644531,,7.5
1727565933.6,10.2249755859375,,7.55
1727565933.65,9.565780639648438,,7.6
1727565933.7,9.2310791015625,,7.65
1727565933.75,8.952583312988281,,7.7
1727565933.8,8.845268249511719,,7.75
1727565933.85,8.668975830078125,,7.8
1727565933.9,8.571884155273438,,7.85
1727565933.95,8.467132568359375,,7.9
1727565934.0,8.393035888671875,,7.95
1727565934.05,8.267845153808594,,8.0
1727565934.1,8.134979248046875,,8.05
1727565934.15,8.012344360351562,,8.1
1727565934.2,8.073661804199219,,8.15
1727565934.25,8.21929931640625,,8.2
1727565934.3,8.283172607421875,,8.25
1727565934.35,8.27294921875,,8.3
