Data Set 1:Time(s),Data Set 1:Force(N),Data Set 1:Respiration Rate(bpm),time
1727564898.85,6.461456298828125,,0.0
1727564898.9,6.466567993164063,,0.05
1727564898.95,6.487007141113281,,0.1
1727564899.0,6.474235534667969,,0.15
1727564899.05,6.420578002929688,,0.2
1727564899.1,6.423133850097656,,0.25
1727564899.15,6.45124053955078,,0.3
1727564899.2,6.48956298828125,,0.35
1727564899.25,6.729728698730469,,0.4
1727564899.3,7.026115417480469,,0.45
1727564899.35,7.526893615722656,,0.5
1727564899.4,7.8181610107421875,,0.55
1727564899.45,8.293388366699219,,0.6
1727564899.5,8.694526672363281,,0.65
1727564899.55,9.228523254394531,,0.7
1727564899.6,9.50701904296875,,0.75
1727564899.65,9.974578857421877,,0.8
1727564899.7,10.301620483398438,,0.85
1727564899.75,10.802398681640623,,0.9
1727564899.8,11.129440307617188,,0.95
1727564899.85,11.479476928710938,,1.0
1727564899.9,11.630218505859377,,1.05
1727564899.95,11.612335205078123,,1.1
1727564900.0,11.392608642578123,,1.15
1727564900.05,11.1064453125,,1.2
1727564900.1,10.9608154296875,,1.25
1727564900.15,10.368049621582031,,1.3
1727564900.2,9.667984008789062,,1.35
1727564900.25,8.610214233398438,,1.4
1727564900.3,8.078773498535156,,1.45
1727564900.35,7.506454467773437,,1.5
1727564900.4,7.28160858154297,,1.55
1727564900.45,6.975013732910156,,1.6
1727564900.5,6.791053771972656,,1.65
1727564900.55,6.755279541015625,,1.7
1727564900.6,6.86003875732422,,1.75
1727564900.65,7.059326171875,,1.8
1727564900.7,7.074653625488281,,1.85
1727564900.75,6.865150451660156,,1.9
1727564900.8,6.701629638671875,,1.95
1727564900.85,6.5074462890625,,2.0
1727564900.9,6.420578002929688,,2.05
1727564900.95,6.3975830078125,,2.1
1727564901.0,6.356704711914063,,2.15
1727564901.05,6.239173889160156,,2.2
1727564901.1,6.213623046875,,2.25
1727564901.15,6.216178894042969,,2.3
1727564901.2,6.259613037109375,,2.35
1727564901.25,6.3285980224609375,,2.4
1727564901.3,6.361808776855469,,2.45
1727564901.35,6.4486846923828125,,2.5
1727564901.4,6.4716796875,,2.55
1727564901.45,6.420578002929688,,2.6
1727564901.5,6.395027160644531,,2.65
1727564901.55,6.37969970703125,,2.7
1727564901.6,6.30560302734375,,2.75
1727564901.65,6.159965515136719,,2.8
1727564901.7,6.088424682617188,,2.85
1727564901.75,6.062873840332031,,2.9
1727564901.8,6.119087219238281,,2.95
1727564901.85,6.257057189941406,,3.0
1727564901.9,6.359260559082031,,3.05
1727564901.95,6.609649658203125,,3.1
1727564902.0,6.883033752441406,,3.15
1727564902.05,7.3224945068359375,,3.2
1727564902.1,7.562660217285157,,3.25
1727564902.15,7.848823547363281,,3.3
1727564902.2,8.020004272460938,,3.35
1727564902.25,8.198860168457031,,3.4
1727564902.3,8.224403381347656,,3.45
1727564902.35,8.170753479003906,,3.5
1727564902.4,8.178413391113281,,3.55
1727564902.45,8.418586730957031,,3.6
1727564902.5,8.750740051269531,,3.65
1727564902.55,9.637321472167969,,3.7
1727564902.6,10.39104461669922,,3.75
1727564902.65,11.298072814941406,,3.8
1727564902.7,11.691543579101562,,3.85
1727564902.75,12.067123413085938,,3.9
1727564902.8,12.166770935058594,,3.95
1727564902.85,12.225540161132812,,4.0
1727564902.9,12.251083374023438,,4.05
1727564902.95,12.033912658691406,,4.1
1727564903.0,11.75286102294922,,4.15
1727564903.05,11.423263549804688,,4.2
1727564903.1,11.313400268554688,,4.25
1727564903.15,11.211204528808594,,4.3
1727564903.2,11.12432861328125,,4.35
1727564903.25,10.94036865234375,,4.4
1727564903.3,10.725753784179688,,4.45
1727564903.35,10.099777221679688,,4.5
1727564903.4,9.54278564453125,,4.55
1727564903.45,8.896369934082031,,4.6
1727564903.5,8.643424987792969,,4.65
1727564903.55,8.387924194335938,,4.7
1727564903.6,8.267845153808594,,4.75
1727564903.65,8.288284301757812,,4.8
1727564903.7,8.566780090332031,,4.85
1727564903.75,9.386932373046877,,4.9
1727564903.8,10.033348083496094,,4.95
1727564903.85,10.666984558105469,,5.0
1727564903.9,10.7027587890625,,5.05
1727564903.95,10.626106262207031,,5.1
1727564904.0,10.600555419921877,,5.15
1727564904.05,10.513687133789062,,5.2
1727564904.1,10.46258544921875,,5.25
1727564904.15,10.27606964111328,,5.3
1727564904.2,10.084449768066406,,5.35
1727564904.25,9.685867309570312,,5.4
1727564904.3,9.46868896484375,,5.45
1727564904.35,9.32050323486328,,5.5
1727564904.4,9.256629943847656,,5.55
1727564904.45,9.190193176269531,,5.6
1727564904.5,9.146759033203123,,5.65
1727564904.55,9.052223205566406,,5.7
1727564904.6,8.970466613769531,,5.75
1727564904.65,8.786506652832031,,5.8
1727564904.7,8.599990844726562,,5.85
1727564904.75,8.27294921875,,5.9
1727564904.8,8.042999267578125,,5.95
1727564904.85,7.736404418945312,,6.0
1727564904.9,7.575439453125,,6.05
1727564904.95,7.319938659667968,,6.1
1727564905.0,7.1845245361328125,,6.15
1727564905.05,7.199851989746094,,6.2
1727564905.1,7.314826965332032,,6.25
1727564905.15,7.475791931152344,,6.3
1727564905.2,7.55500030517578,,6.35
1727564905.25,7.70318603515625,,6.4
1727564905.3,7.864151000976563,,6.45
1727564905.35,8.298500061035156,,6.5
1727564905.4,8.7149658203125,,6.55
1727564905.45,9.409927368164062,,6.6
1727564905.5,9.816169738769531,,6.65
1727564905.55,10.255630493164062,,6.7
1727564905.6,10.526458740234377,,6.75
1727564905.65,10.771743774414062,,6.8
1727564905.7,10.787071228027344,,6.85
1727564905.75,10.835617065429688,,6.9
1727564905.8,10.919929504394531,,6.95
1727564905.85,11.119224548339844,,7.0
1727564905.9,11.262298583984377,,7.05
1727564905.95,11.20098114013672,,7.1
1727564906.0,11.01702117919922,,7.15
1727564906.05,10.7027587890625,,7.2
1727564906.1,10.472808837890623,,7.25
1727564906.15,10.158538818359377,,7.3
1727564906.2,9.87238311767578,,7.35
1727564906.25,9.185089111328123,,7.4
1727564906.3,8.737960815429688,,7.45
1727564906.35,8.324050903320312,,7.5
1727564906.4,8.137535095214844,,7.55
1727564906.45,8.122207641601562,,7.6
1727564906.5,8.359825134277344,,7.65
1727564906.55,8.873374938964844,,7.7
1727564906.6,9.197860717773438,,7.75
1727564906.65,9.489128112792969,,7.8
1727564906.7,9.586219787597656,,7.85
1727564906.75,9.601554870605469,,7.9
1727564906.8,9.555564880371092,,7.95
1727564906.85,9.530014038085936,,8.0
1727564906.9,9.54022979736328,,8.05
1727564906.95,9.611770629882812,,8.1
1727564907.0,9.629653930664062,12.080536842346191,8.15
1727564907.05,9.461029052734377,,8.2
1727564907.1,9.266845703125,,8.25
1727564907.15,9.02922821044922,,8.3
1727564907.2,8.957695007324219,,8.35
1727564907.25,8.939804077148438,,8.4
1727564907.3,8.911705017089844,,8.45
1727564907.35,8.814613342285156,,8.5
1727564907.4,8.727745056152344,,8.55
1727564907.45,8.538673400878906,,8.6
1727564907.5,8.387924194335938,,8.65
1727564907.55,8.191192626953125,,8.7
1727564907.6,8.091545104980469,,8.75
1727564907.65,7.9791259765625,,8.8
1727564907.7,7.9280242919921875,,8.85
1727564907.75,7.810493469238281,,8.9
1727564907.8,7.718513488769531,,8.95
1727564907.85,7.659751892089843,,9.0
1727564907.9,7.692970275878905,,9.05
1727564907.95,7.8002777099609375,,9.1
1727564908.0,7.846267700195312,,9.15
1727564908.05,7.85393524169922,,9.2
1727564908.1,7.843711853027344,,9.25
1727564908.15,7.8283843994140625,,9.3
1727564908.2,7.8283843994140625,,9.35
1727564908.25,7.859039306640625,,9.4
1727564908.3,7.871818542480469,,9.45
1727564908.35,7.882034301757812,,9.5
1727564908.4,7.88714599609375,,9.55
1727564908.45,7.787498474121095,,9.6
1727564908.5,7.7082977294921875,,9.65
1727564908.55,7.738960266113281,,9.7
1727564908.6,7.825828552246095,,9.75
1727564908.65,7.948463439941406,,9.8
1727564908.7,7.984237670898437,,9.85
1727564908.75,7.958686828613281,,9.9
1727564908.8,7.933135986328125,,9.95
1727564908.85,7.92292022705078,,10.0
1727564908.9,7.9280242919921875,,10.05
1727564908.95,7.935691833496095,,10.1
1727564909.0,7.935691833496095,,10.15
1727564909.05,7.9280242919921875,,10.2
1727564909.1,7.88459014892578,,10.25
1727564909.15,7.767059326171875,,10.3
1727564909.2,7.728736877441406,,10.35
1727564909.25,7.77728271484375,,10.4
1727564909.3,7.841156005859375,,10.45
1727564909.35,7.9101409912109375,,10.5
1727564909.4,7.917808532714843,,10.55
1727564909.45,7.892257690429688,,10.6
1727564909.5,7.866706848144531,,10.65
1727564909.55,7.838600158691406,,10.7
1727564909.6,7.830940246582032,,10.75
1727564909.65,7.823272705078125,,10.8
1727564909.7,7.81560516357422,,10.85
1727564909.75,7.79772186279297,,10.9
1727564909.8,7.726181030273437,,10.95
1727564909.85,7.603538513183594,,11.0
1727564909.9,7.588211059570312,,11.05
1727564909.95,7.659751892089843,,11.1
1727564910.0,7.733848571777344,,11.15
1727564910.05,7.787498474121095,,11.2
1727564910.1,7.767059326171875,,11.25
1727564910.15,7.733848571777344,,11.3
1727564910.2,7.731292724609375,,11.35
1727564910.25,7.7210693359375,,11.4
1727564910.3,7.70574188232422,,11.45
1727564910.35,7.66486358642578,,11.5
1727564910.4,7.646980285644531,,11.55
1727564910.45,7.588211059570312,,11.6
1727564910.5,7.493675231933594,,11.65
1727564910.55,7.396583557128905,,11.7
1727564910.6,7.396583557128905,,11.75
1727564910.65,7.468124389648437,,11.8
1727564910.7,7.521781921386719,,11.85
1727564910.75,7.547332763671875,,11.9
1727564910.8,7.534553527832032,,11.95
1727564910.85,7.529449462890625,,12.0
1727564910.9,7.537109375,,12.05
1727564910.95,7.534553527832032,,12.1
1727564911.0,7.532005310058594,,12.15
1727564911.05,7.529449462890625,,12.2
1727564911.1,7.524337768554688,,12.25
1727564911.15,7.470680236816406,,12.3
1727564911.2,7.4042510986328125,,12.35
1727564911.25,7.358261108398437,,12.4
1727564911.3,7.381256103515625,,12.45
1727564911.35,7.455352783203125,,12.5
1727564911.4,7.491119384765625,,12.55
1727564911.45,7.506454467773437,,12.6
1727564911.5,7.491119384765625,,12.65
1727564911.55,7.470680236816406,,12.7
1727564911.6,7.468124389648437,,12.75
1727564911.65,7.468124389648437,,12.8
1727564911.7,7.4604644775390625,,12.85
1727564911.75,7.455352783203125,,12.9
1727564911.8,7.442573547363281,,12.95
1727564911.85,7.355705261230469,,13.0
1727564911.9,7.29949951171875,,13.05
1727564911.95,7.309715270996095,,13.1
1727564912.0,7.355705261230469,,13.15
1727564912.05,7.429801940917968,,13.2
1727564912.1,7.44512939453125,,13.25
1727564912.15,7.4221343994140625,,13.3
1727564912.2,7.40680694580078,,13.35
1727564912.25,7.388923645019531,,13.4
1727564912.3,7.376144409179688,,13.45
1727564912.35,7.363372802734375,,13.5
1727564912.4,7.355705261230469,,13.55
1727564912.45,7.3531494140625,,13.6
1727564912.5,7.332710266113281,,13.65
1727564912.55,7.253509521484375,,13.7
1727564912.6,7.217735290527344,,13.75
1727564912.65,7.22795867919922,,13.8
1727564912.7,7.273948669433594,,13.85
1727564912.75,7.350593566894531,,13.9
1727564912.8,7.363372802734375,,13.95
1727564912.85,7.342933654785157,,14.0
1727564912.9,7.327598571777344,,14.05
1727564912.95,7.314826965332032,,14.1
1727564913.0,7.3122711181640625,,14.15
1727564913.05,7.319938659667968,,14.2
1727564913.1,7.3122711181640625,,14.25
1727564913.15,7.307159423828125,,14.3
1727564913.2,7.276504516601563,,14.35
1727564913.25,7.194740295410156,,14.4
1727564913.3,7.171745300292969,,14.45
1727564913.35,7.194740295410156,,14.5
1727564913.4,7.222846984863281,,14.55
1727564913.45,7.161529541015625,,14.6
1727564913.5,7.005668640136719,,14.65
1727564913.55,6.7603912353515625,,14.7
1727564913.6,6.724624633789063,,14.75
1727564913.65,6.862594604492188,,14.8
1727564913.7,7.051658630371094,,14.85
1727564913.75,7.585655212402344,,14.9
1727564913.8,8.025115966796875,,14.95
1727564913.85,8.561668395996094,,15.0
1727564913.9,8.809501647949219,,15.05
1727564913.95,9.034339904785156,,15.1
1727564914.0,9.126319885253906,,15.15
1727564914.05,9.24896240234375,,15.2
1727564914.1,9.346054077148438,,15.25
1727564914.15,9.338386535644531,,15.3
1727564914.2,9.128875732421877,,15.35
1727564914.25,9.036895751953123,,15.4
1727564914.3,9.28472900390625,,15.45
1727564914.35,9.790618896484377,,15.5
1727564914.4,10.194313049316406,,15.55
1727564914.45,10.72064208984375,,15.6
1727564914.5,10.856056213378906,,15.65
1727564914.55,10.700202941894531,,15.7
1727564914.6,10.454925537109377,,15.75
1727564914.65,10.127883911132812,,15.8
1727564914.7,10.012908935546877,,15.85
1727564914.75,9.951583862304688,,15.9
1727564914.8,9.851943969726562,,15.95
1727564914.85,9.32050323486328,,16.0
1727564914.9,8.875930786132812,,16.05
1727564914.95,8.485015869140625,,16.1
1727564915.0,8.357269287109375,,16.15
1727564915.05,8.232070922851562,,16.2
1727564915.1,8.1630859375,,16.25
1727564915.15,8.086433410644531,,16.3
1727564915.2,8.007232666015625,,16.35
1727564915.25,7.830940246582032,,16.4
1727564915.3,7.761955261230469,,16.45
1727564915.35,7.772171020507812,,16.5
1727564915.4,7.825828552246095,,16.55
1727564915.45,7.861595153808594,,16.6
1727564915.5,7.8283843994140625,,16.65
1727564915.55,7.782394409179688,,16.7
1727564915.6,7.772171020507812,,16.75
1727564915.65,7.749176025390625,,16.8
1727564915.7,7.715965270996095,,16.85
1727564915.75,7.641868591308594,,16.9
1727564915.8,7.59332275390625,,16.95
1727564915.85,7.465568542480469,,17.0
1727564915.9,7.368484497070312,,17.05
1727564915.95,7.327598571777344,,17.1
1727564916.0,7.33782196044922,,17.15
1727564916.05,7.355705261230469,,17.2
1727564916.1,7.376144409179688,,17.25
1727564916.15,7.424690246582032,,17.3
1727564916.2,7.429801940917968,,17.35
1727564916.25,7.358261108398437,,17.4
1727564916.3,7.286720275878905,,17.45
1727564916.35,7.18708038330078,,17.5
1727564916.4,7.125755310058594,,17.55
1727564916.45,7.031219482421875,,17.6
1727564916.5,6.93157958984375,,17.65
1727564916.55,6.716957092285156,,17.7
1727564916.6,6.6326446533203125,,17.75
1727564916.65,6.678634643554688,,17.8
1727564916.7,6.839599609375,,17.85
1727564916.75,7.15130615234375,,17.9
1727564916.8,7.2841644287109375,,17.95
1727564916.85,7.394035339355469,,18.0
1727564916.9,7.478347778320312,,18.05
1727564916.95,7.654640197753905,,18.1
1727564917.0,7.779838562011719,10.041840553283691,18.15
1727564917.05,7.986793518066406,,18.2
1727564917.1,8.229515075683594,,18.25
1727564917.15,8.886154174804688,,18.3
1727564917.2,9.461029052734377,,18.35
1727564917.25,10.194313049316406,,18.4
1727564917.3,10.483024597167969,,18.45
1727564917.35,10.822845458984377,,18.5
1727564917.4,11.063011169433594,,18.55
1727564917.45,11.300628662109377,,18.6
1727564917.5,11.30828857421875,,18.65
1727564917.55,11.12432861328125,,18.7
1727564917.6,10.858612060546877,,18.75
1727564917.65,10.357833862304688,,18.8
1727564917.7,10.064010620117188,,18.85
1727564917.75,9.665428161621092,,18.9
1727564917.8,9.440589904785156,,18.95
1727564917.85,9.118659973144531,,19.0
1727564917.9,8.893814086914062,,19.05
1727564917.95,8.656204223632812,,19.1
1727564918.0,8.543785095214844,,19.15
1727564918.05,8.357269287109375,,19.2
1727564918.1,8.257621765136719,,19.25
1727564918.15,8.252510070800781,,19.3
1727564918.2,8.321495056152344,,19.35
1727564918.25,8.418586730957031,,19.4
1727564918.3,8.462020874023438,,19.45
1727564918.35,8.464576721191406,,19.5
1727564918.4,8.43902587890625,,19.55
1727564918.45,8.385368347167969,,19.6
1727564918.5,8.352157592773438,,19.65
1727564918.55,8.349601745605469,,19.7
1727564918.6,8.295944213867188,,19.75
1727564918.65,8.1630859375,,19.8
1727564918.7,8.109428405761719,,19.85
1727564918.75,8.101768493652344,,19.9
1727564918.8,8.132423400878906,,19.95
1727564918.85,8.157974243164062,,20.0
1727564918.9,8.150314331054688,,20.05
1727564918.95,8.065994262695312,,20.1
1727564919.0,7.981681823730469,,20.15
1727564919.05,7.85393524169922,,20.2
1727564919.1,7.754287719726563,,20.25
1727564919.15,7.59332275390625,,20.3
1727564919.2,7.5013427734375,,20.35
1727564919.25,7.411918640136719,,20.4
1727564919.3,7.342933654785157,,20.45
1727564919.35,7.176856994628906,,20.5
1727564919.4,7.1002044677734375,,20.55
1727564919.45,7.11553955078125,,20.6
1727564919.5,7.1334228515625,,20.65
1727564919.55,7.143638610839844,,20.7
1727564919.6,7.130867004394531,,20.75
1727564919.65,7.07720947265625,,20.8
1727564919.7,7.0363311767578125,,20.85
1727564919.75,6.885589599609375,,20.9
1727564919.8,6.6684112548828125,,20.95
1727564919.85,6.308158874511719,,21.0
1727564919.9,6.2187347412109375,,21.05
1727564919.95,6.257057189941406,,21.1
1727564920.0,6.30560302734375,,21.15
1727564920.05,6.461456298828125,,21.2
1727564920.1,6.589210510253906,,21.25
1727564920.15,6.752723693847656,,21.3
1727564920.2,6.867698669433594,,21.35
1727564920.25,7.1334228515625,,21.4
1727564920.3,7.4042510986328125,,21.45
1727564920.35,7.917808532714843,,21.5
1727564920.4,8.354713439941406,,21.55
1727564920.45,9.144203186035156,,21.6
1727564920.5,9.65264892578125,,21.65
1727564920.55,10.217308044433594,,21.7
1727564920.6,10.48046875,,21.75
1727564920.65,10.79218292236328,,21.8
1727564920.7,10.925041198730469,,21.85
1727564920.75,10.90715789794922,,21.9
1727564920.8,10.687423706054688,,21.95
1727564920.85,10.201980590820312,,22.0
1727564920.9,9.90814971923828,,22.05
1727564920.95,9.555564880371092,,22.1
1727564921.0,9.4150390625,,22.15
1727564921.05,9.348609924316406,,22.2
1727564921.1,9.328163146972656,,22.25
1727564921.15,9.274513244628906,,22.3
1727564921.2,9.182533264160156,,22.35
1727564921.25,8.985794067382812,,22.4
1727564921.3,8.950027465820312,,22.45
1727564921.35,9.059890747070312,,22.5
1727564921.4,9.128875732421877,,22.55
1727564921.45,9.121208190917969,,22.6
1727564921.5,9.013900756835936,,22.65
1727564921.55,8.781394958496094,,22.7
1727564921.6,8.648536682128906,,22.75
1727564921.65,8.54888916015625,,22.8
1727564921.7,8.569328308105469,,22.85
1727564921.75,8.620429992675781,,22.9
1727564921.8,8.592323303222656,,22.95
1727564921.85,8.472244262695312,,23.0
1727564921.9,8.375152587890625,,23.05
1727564921.95,8.21929931640625,,23.1
1727564922.0,8.14520263671875,,23.15
1727564922.05,8.048110961914062,,23.2
1727564922.1,7.9663543701171875,,23.25
1727564922.15,7.81304931640625,,23.3
1727564922.2,7.662307739257812,,23.35
1727564922.25,7.478347778320312,,23.4
1727564922.3,7.4502410888671875,,23.45
