Data Set 1:Time(s),Data Set 1:Force(N),Data Set 1:Respiration Rate(bpm),time
1727231320.0,7.2305145263671875,,0.0
1727231320.05,7.77728271484375,,0.05
1727231320.1,8.14520263671875,,0.1
1727231320.15,8.656204223632812,,0.15
1727231320.2,8.932144165039062,,0.2
1727231320.25,9.338386535644531,,0.25
1727231320.3,9.588775634765623,,0.3
1727231320.35,9.938812255859377,,0.35
1727231320.4,10.189201354980469,,0.4
1727231320.45,10.600555419921877,,0.45
1727231320.5,10.881607055664062,,0.5
1727231320.55,11.338951110839844,,0.55
1727231320.6,11.75030517578125,,0.6
1727231320.65,12.493812561035156,,0.65
1727231320.7,13.043136596679688,,0.7
1727231320.75,13.95526885986328,,0.75
1727231320.8,14.599128723144531,,0.8
1727231320.85,15.626243591308594,,0.85
1727231320.9,16.466835021972656,,0.9
1727231320.95,18.18634796142578,,0.95
1727231321.0,19.5328369140625,,1.0
1727231321.05,21.53595733642578,,1.05
1727231321.1,22.690814971923828,,1.1
1727231321.15,23.978534698486328,,1.15
1727231321.2,24.550857543945312,,1.2
1727231321.25,24.724597930908203,,1.25
1727231321.3,24.30302047729492,,1.3
1727231321.35,23.104724884033203,,1.35
1727231321.4,22.085281372070312,,1.4
1727231321.45,20.53950500488281,,1.45
1727231321.5,19.57115936279297,,1.5
1727231321.55,18.13780975341797,,1.55
1727231321.6,17.189903259277344,,1.6
1727231321.65,15.741218566894531,,1.65
1727231321.7,14.76520538330078,,1.7
1727231321.75,13.70232391357422,,1.75
1727231321.8,13.324188232421877,,1.8
1727231321.85,12.718650817871094,,1.85
1727231321.9,12.19232177734375,,1.9
1727231321.95,11.410491943359377,,1.95
1727231322.0,10.927597045898438,,2.0
1727231322.05,10.217308044433594,,2.05
1727231322.1,9.849388122558592,,2.1
1727231322.15,9.425254821777344,,2.15
1727231322.2,9.077774047851562,,2.2
1727231322.25,8.666419982910156,,2.25
1727231322.3,8.520790100097656,,2.3
1727231322.35,8.367485046386719,,2.35
1727231322.4,8.280616760253906,,2.4
1727231322.45,8.109428405761719,,2.45
1727231322.5,7.974014282226563,,2.5
1727231322.55,7.767059326171875,,2.55
1727231322.6,7.659751892089843,,2.6
1727231322.65,7.532005310058594,,2.65
1727231322.7,7.394035339355469,,2.7
1727231322.75,7.2432861328125,,2.75
1727231322.8,7.233070373535157,,2.8
1727231322.85,7.22540283203125,,2.85
1727231322.9,7.197296142578125,,2.9
1727231322.95,7.125755310058594,,2.95
1727231323.0,7.092544555664063,,3.0
1727231323.05,7.1104278564453125,,3.05
1727231323.1,7.217735290527344,,3.1
1727231323.15,7.583099365234375,,3.15
1727231323.2,7.88714599609375,,3.2
1727231323.25,8.454353332519531,,3.25
1727231323.3,8.944915771484375,,3.3
1727231323.35,9.777847290039062,,3.35
1727231323.4,10.362945556640623,,3.4
1727231323.45,11.259750366210938,,3.45
1727231323.5,11.870391845703123,,3.5
1727231323.55,12.792747497558594,,3.55
1727231323.6,13.44171905517578,,3.6
1727231323.65,14.576133728027344,,3.65
1727231323.7,15.360519409179688,,3.7
1727231323.75,16.548599243164062,,3.75
1727231323.8,17.43262481689453,,3.8
1727231323.85,18.92474365234375,,3.85
1727231323.9,19.99273681640625,,3.9
1727231323.95,21.395431518554688,,3.95
1727231324.0,21.9575309753418,,4.0
1727231324.05,22.151710510253903,,4.05
1727231324.1,21.819564819335938,,4.1
1727231324.15,21.145042419433597,,4.15
1727231324.2,20.884429931640625,,4.2
1727231324.25,20.65192413330078,,4.25
1727231324.3,20.64936828613281,,4.3
1727231324.35,20.557388305664062,,4.35
1727231324.4,20.097488403320312,,4.4
1727231324.45,18.010055541992188,,4.45
1727231324.5,16.04015350341797,,4.5
1727231324.55,13.74065399169922,,4.55
1727231324.6,12.716094970703123,,4.6
1727231324.65,11.75030517578125,,4.65
1727231324.7,11.34661865234375,,4.7
1727231324.75,10.743637084960938,,4.75
1727231324.8,10.347610473632812,,4.8
1727231324.85,9.87749481201172,,4.85
1727231324.9,9.634765625,,4.9
1727231324.95,9.381820678710936,,4.95
1727231325.0,9.292396545410156,21.428571701049805,5.0
1727231325.05,9.200416564941406,,5.05
1727231325.1,9.087997436523438,,5.1
1727231325.15,8.832496643066406,,5.15
1727231325.2,8.668975830078125,,5.2
1727231325.25,8.339378356933594,,5.25
1727231325.3,8.101768493652344,,5.3
1727231325.35,7.882034301757812,,5.35
1727231325.4,7.738960266113281,,5.4
1727231325.45,7.526893615722656,,5.45
1727231325.5,7.42724609375,,5.5
1727231325.55,7.314826965332032,,5.55
1727231325.6,7.276504516601563,,5.6
1727231325.65,7.197296142578125,,5.65
1727231325.7,7.135978698730469,,5.7
1727231325.75,7.04144287109375,,5.75
1727231325.8,6.900917053222656,,5.8
1727231325.85,6.734840393066406,,5.85
1727231325.9,6.70928955078125,,5.9
1727231325.95,6.722068786621094,,5.95
1727231326.0,6.74761962890625,,6.0
1727231326.05,6.808937072753906,,6.05
1727231326.1,6.85748291015625,,6.1
1727231326.15,6.89324951171875,,6.15
1727231326.2,6.89069366455078,,6.2
1727231326.25,6.898361206054688,,6.25
1727231326.3,6.885589599609375,,6.3
1727231326.35,6.70928955078125,,6.35
1727231326.4,6.545768737792969,,6.4
1727231326.45,6.4384613037109375,,6.45
1727231326.5,6.423133850097656,,6.5
1727231326.55,6.338813781738281,,6.55
1727231326.6,6.236618041992188,,6.6
1727231326.65,6.1446380615234375,,6.65
1727231326.7,6.262168884277344,,6.7
1727231326.75,6.693962097167969,,6.75
1727231326.8,7.049110412597656,,6.8
1727231326.85,7.631645202636719,,6.85
1727231326.9,7.981681823730469,,6.9
1727231326.95,8.589775085449219,,6.95
1727231327.0,9.162094116210936,,7.0
1727231327.05,10.138099670410156,,7.05
1727231327.1,10.802398681640623,,7.1
1727231327.15,11.8065185546875,,7.15
1727231327.2,12.48614501953125,,7.2
1727231327.25,13.569465637207031,,7.25
1727231327.3,14.315528869628906,,7.3
1727231327.35,15.462722778320312,,7.35
1727231327.4,16.211334228515625,,7.4
1727231327.45,17.12091827392578,,7.45
1727231327.5,17.573150634765625,,7.5
1727231327.55,17.97173309326172,,7.55
1727231327.6,17.935958862304688,,7.6
1727231327.65,17.04682159423828,,7.65
1727231327.7,15.746330261230469,,7.7
1727231327.75,13.354843139648438,,7.75
1727231327.8,11.985366821289062,,7.8
1727231327.85,10.5545654296875,,7.85
1727231327.9,9.98480224609375,,7.9
1727231327.95,9.36138153076172,,7.95
1727231328.0,8.980690002441406,,8.0
1727231328.05,8.559112548828125,,8.05
1727231328.1,8.375152587890625,,8.1
1727231328.15,8.18096923828125,,8.15
1727231328.2,8.073661804199219,,8.2
1727231328.25,7.866706848144531,,8.25
1727231328.3,7.70318603515625,,8.3
1727231328.35,7.473236083984375,,8.35
1727231328.4,7.350593566894531,,8.4
1727231328.45,7.29694366455078,,8.45
1727231328.5,7.26116943359375,,8.5
1727231328.55,7.046554565429688,,8.55
1727231328.6,6.842155456542969,,8.6
1727231328.65,6.56365966796875,,8.65
1727231328.7,6.45124053955078,,8.7
1727231328.75,6.333709716796875,,8.75
1727231328.8,6.2647247314453125,,8.8
1727231328.85,6.185516357421875,,8.85
1727231328.9,6.1344146728515625,,8.9
1727231328.95,6.096092224121094,,8.95
1727231329.0,6.062873840332031,,9.0
1727231329.05,6.01433563232422,,9.05
1727231329.1,6.04754638671875,,9.1
1727231329.15,6.131858825683594,,9.15
1727231329.2,6.185516357421875,,9.2
1727231329.25,6.177848815917969,,9.25
1727231329.3,6.067985534667969,,9.3
1727231329.35,5.978561401367188,,9.35
1727231329.4,6.119087219238281,,9.4
1727231329.45,6.704185485839844,,9.45
1727231329.5,7.233070373535157,,9.5
1727231329.55,7.943359375,,9.55
1727231329.6,8.390480041503906,,9.6
1727231329.65,9.108436584472656,,9.65
1727231329.7,9.637321472167969,,9.7
1727231329.75,10.546905517578123,,9.75
1727231329.8,11.172874450683594,,9.8
1727231329.85,12.197433471679688,,9.85
1727231329.9,13.142784118652344,,9.9
1727231329.95,15.475494384765623,,9.95
1727231330.0,17.703453063964844,,10.0
1727231330.05,21.219139099121097,,10.05
1727231330.1,23.19415283203125,,10.1
1727231330.15,25.537086486816406,,10.15
1727231330.2,26.69194793701172,,10.2
1727231330.25,27.61174774169922,,10.25
1727231330.3,27.51465606689453,,10.3
1727231330.35,26.290809631347656,,10.35
1727231330.4,25.353126525878903,,10.4
1727231330.45,24.02963638305664,,10.45
1727231330.5,22.89776992797852,,10.5
1727231330.55,21.21402740478516,,10.55
1727231330.6,20.28911590576172,,10.6
1727231330.65,18.937522888183597,,10.65
1727231330.7,18.053489685058597,,10.7
1727231330.75,16.80664825439453,,10.75
1727231330.8,15.815315246582031,,10.8
1727231330.85,14.044692993164062,,10.85
1727231330.9,12.940933227539062,,10.9
1727231330.95,11.683876037597656,,10.95
1727231331.0,11.101333618164062,,11.0
1727231331.05,10.447257995605469,,11.05
1727231331.1,10.038459777832031,,11.1
1727231331.15,9.527458190917969,,11.15
1727231331.2,9.28472900390625,,11.2
1727231331.25,8.942359924316406,,11.25
1727231331.3,8.737960815429688,,11.3
1727231331.35,8.462020874023438,,11.35
1727231331.4,8.288284301757812,,11.4
1727231331.45,8.109428405761719,,11.45
1727231331.5,8.020004272460938,,11.5
1727231331.55,7.85393524169922,,11.55
1727231331.6,7.68274688720703,,11.6
1727231331.65,7.44768524169922,,11.65
1727231331.7,7.358261108398437,,11.7
1727231331.75,7.18962860107422,,11.75
1727231331.8,7.03888702392578,,11.8
1727231331.85,6.829376220703125,,11.85
1727231331.9,6.734840393066406,,11.9
1727231331.95,6.619865417480469,,11.95
1727231332.0,6.555992126464844,,12.0
1727231332.05,6.499778747558594,,12.05
1727231332.1,6.45378875732422,,12.1
1727231332.15,6.38225555419922,,12.15
1727231332.2,6.395027160644531,,12.2
1727231332.25,6.423133850097656,,12.25
1727231332.3,6.418022155761719,,12.3
1727231332.35,6.423133850097656,,12.35
1727231332.4,6.41546630859375,,12.4
1727231332.45,6.41546630859375,,12.45
1727231332.5,6.461456298828125,,12.5
1727231332.55,6.6505279541015625,,12.55
1727231332.6,6.785942077636719,,12.6
1727231332.65,6.8804779052734375,,12.65
1727231332.7,6.957130432128906,,12.7
1727231332.75,7.215179443359375,,12.75
1727231332.8,7.465568542480469,,12.8
1727231332.85,7.905029296875,,12.85
1727231332.9,8.211631774902344,,12.9
1727231332.95,8.740516662597656,,12.95
1727231333.0,9.17230987548828,,13.0
1727231333.05,9.9669189453125,,13.05
1727231333.1,10.564788818359377,,13.1
1727231333.15,11.41815948486328,,13.15
1727231333.2,11.959815979003906,,13.2
1727231333.25,12.813186645507812,,13.25
1727231333.3,13.485153198242188,,13.3
1727231333.35,14.900619506835938,,13.35
1727231333.4,16.249664306640625,,13.4
1727231333.45,18.472511291503903,,13.45
1727231333.5,19.79344940185547,,13.5
1727231333.55,21.61005401611328,,13.55
1727231333.6,22.818565368652344,,13.6
1727231333.65,24.701602935791016,,13.65
1727231333.7,25.74915313720703,,13.7
1727231333.75,26.541202545166016,,13.75
1727231333.8,26.482437133789062,,13.8
1727231333.85,25.20493698120117,,13.85
1727231333.9,23.970870971679688,,13.9
1727231333.95,22.43787002563477,,13.95
1727231334.0,21.4822998046875,,14.0
1727231334.05,20.10004425048828,,14.05
1727231334.1,19.25434112548828,,14.1
1727231334.15,17.754554748535156,,14.15
1727231334.2,16.594589233398438,,14.2
1727231334.25,14.857185363769531,,14.25
1727231334.3,13.66144561767578,,14.3
1727231334.35,12.1361083984375,,14.35
1727231334.4,11.443710327148438,,14.4
1727231334.45,10.725753784179688,,14.45
1727231334.5,10.406379699707031,,14.5
1727231334.55,10.117660522460938,,14.55
1727231334.6,9.98224639892578,,14.6
1727231334.65,9.76762390136719,,14.65
1727231334.7,9.593887329101562,,14.7
1727231334.75,9.379264831542969,,14.75
1727231334.8,9.307723999023438,,14.8
1727231334.85,9.205528259277344,,14.85
1727231334.9,9.10076904296875,,14.9
1727231334.95,8.850379943847656,,14.95
1727231335.0,8.658760070800781,19.138755798339844,15.0
1727231335.05,8.428810119628906,,15.05
1727231335.1,8.357269287109375,,15.1
1727231335.15,8.313835144042969,,15.15
1727231335.2,8.232070922851562,,15.2
1727231335.25,8.048110961914062,,15.25
1727231335.3,7.96124267578125,,15.3
1727231335.35,7.871818542480469,,15.35
1727231335.4,7.825828552246095,,15.4
1727231335.45,7.733848571777344,,15.45
1727231335.5,7.662307739257812,,15.5
1727231335.55,7.580543518066406,,15.55
1727231335.6,7.544776916503905,,15.6
1727231335.65,7.532005310058594,,15.65
1727231335.7,7.511558532714843,,15.7
1727231335.75,7.46302032470703,,15.75
1727231335.8,7.457908630371095,,15.8
1727231335.85,7.480903625488281,,15.85
1727231335.9,7.524337768554688,,15.9
1727231335.95,7.618873596191406,,15.95
1727231336.0,7.669975280761719,,16.0
1727231336.05,7.81304931640625,,16.05
1727231336.1,8.017448425292969,,16.1
