Data Set 1:Time(s),Data Set 1:Force(N),Data Set 1:Respiration Rate(bpm),time
1739135831.8,2.1000747680664062,,0.0
1739135831.85,2.0055389404296875,,0.05
1739135831.9,1.9672088623046875,,0.1
1739135831.95,1.933998107910156,,0.15
1739135832.0,1.9237747192382812,,0.2
1739135832.05,1.9033355712890625,,0.25
1739135832.1,1.880340576171875,,0.3
1739135832.15,1.8547897338867188,,0.35
1739135832.2,1.8701248168945312,,0.4
1739135832.25,1.954437255859375,,0.45
1739135832.3,2.043861389160156,,0.5
1739135832.35,2.1716156005859375,,0.55
1739135832.4,2.2380447387695312,,0.6
1739135832.45,2.3709030151367188,,0.65
1739135832.5,2.47821044921875,,0.7
1739135832.55,2.6953887939453125,,0.75
1739135832.6,2.9048995971679688,,0.8
1739135832.65,3.2166061401367188,,0.85
1739135832.7,3.4107894897460938,,0.9
1739135832.75,3.702056884765625,,0.95
1739135832.8,3.87579345703125,,1.0
1739135832.85,4.1108551025390625,,1.05
1739135832.9,4.236053466796875,,1.1
1739135832.95,4.361244201660156,,1.15
1739135833.0,4.422569274902344,,1.2
1739135833.05,4.522209167480469,,1.25
1739135833.1,4.588645935058594,,1.3
1739135833.15,4.670402526855469,,1.35
1739135833.2,4.72150421142578,,1.4
1739135833.25,4.780265808105469,,1.45
1739135833.3,4.8007049560546875,,1.5
1739135833.35,4.8748016357421875,,1.55
1739135833.4,4.94378662109375,,1.6
1739135833.45,5.048545837402344,,1.65
1739135833.5,5.1149749755859375,,1.7
1739135833.55,5.23760986328125,,1.75
1739135833.6,5.3628082275390625,,1.8
1739135833.65,5.641304016113281,,1.85
1739135833.7,5.876365661621094,,1.9
1739135833.75,6.221290588378906,,1.95
1739135833.8,6.407798767089844,,2.0
1739135833.85,6.578987121582031,,2.05
1739135833.9,6.635200500488281,,2.1
1739135833.95,6.619865417480469,,2.15
1739135834.0,6.573875427246094,10.217983245849608,2.2
1739135834.05,6.37969970703125,,2.25
1739135834.1,6.1344146728515625,,2.3
1739135834.15,5.7486114501953125,,2.35
1739135834.2,5.505889892578125,,2.4
1739135834.25,5.153297424316406,,2.45
1739135834.3,4.915679931640625,,2.5
1739135834.35,4.596305847167969,,2.55
1739135834.4,4.4149017333984375,,2.6
1739135834.45,4.146629333496094,,2.65
1739135834.5,3.9984359741210938,,2.7
1739135834.55,3.8885726928710938,,2.75
1739135834.6,3.896240234375,,2.8
1739135834.65,3.94989013671875,,2.85
1739135834.7,3.955001831054687,,2.9
1739135834.75,3.9115676879882817,,2.95
1739135834.8,3.909011840820313,,3.0
1739135834.85,3.9345626831054688,,3.05
1739135834.9,3.957557678222656,,3.1
1739135834.95,4.0009918212890625,,3.15
1739135835.0,4.054649353027344,,3.2
1739135835.05,4.179840087890625,,3.25
1739135835.1,4.233497619628906,,3.3
1739135835.15,4.20794677734375,,3.35
1739135835.2,4.115966796875,,3.4
1739135835.25,3.87579345703125,,3.45
1739135835.3,3.6739501953125,,3.5
1739135835.35,3.4107894897460938,,3.55
1739135835.4,3.2498245239257812,,3.6
1739135835.45,2.9151153564453125,,3.65
1739135835.5,2.6749496459960938,,3.7
1739135835.55,2.358123779296875,,3.75
1739135835.6,2.1613922119140625,,3.8
1739135835.65,1.918670654296875,,3.85
1739135835.7,1.7909164428710938,,3.9
1739135835.75,1.660614013671875,,3.95
1739135835.8,1.6120681762695312,,4.0
1739135835.85,1.5711898803710938,,4.05
1739135835.9,1.55841064453125,,4.1
1739135835.95,1.5456390380859375,,4.15
1739135836.0,1.5456390380859375,,4.2
1739135836.05,1.5788497924804688,,4.25
1739135836.1,1.6376190185546875,,4.3
1739135836.15,1.8215789794921875,,4.35
1739135836.2,1.992759704589844,,4.4
1739135836.25,2.2176055908203125,,4.45
1739135836.3,2.3121337890625,,4.5
1739135836.35,2.4475555419921875,,4.55
1739135836.4,2.5395355224609375,,4.6
1739135836.45,2.6749496459960938,,4.65
1739135836.5,2.7771453857421875,,4.7
1739135836.55,2.9329986572265625,,4.75
1739135836.6,3.040313720703125,,4.8
1739135836.65,3.17828369140625,,4.85
1739135836.7,3.242156982421875,,4.9
1739135836.75,3.298370361328125,,4.95
1739135836.8,3.3111419677734375,,5.0
1739135836.85,3.3494644165039062,,5.05
1739135836.9,3.390350341796875,,5.1
1739135836.95,3.4542236328125,,5.15
1739135837.0,3.482330322265625,,5.2
1739135837.05,3.4951019287109375,,5.25
1739135837.1,3.489990234375,,5.3
1739135837.15,3.4465560913085938,,5.35
1739135837.2,3.4337844848632812,,5.4
1739135837.25,3.489990234375,,5.45
1739135837.3,3.5640869140625,,5.5
1739135837.35,3.7173843383789062,,5.55
1739135837.4,3.8553543090820312,,5.6
1739135837.45,4.09552764892578,,5.65
1739135837.5,4.2309417724609375,,5.7
1739135837.55,4.389350891113281,,5.75
1739135837.6,4.4889984130859375,,5.8
1739135837.65,4.642295837402344,,5.85
1739135837.7,4.744499206542969,,5.9
1739135837.75,4.91057586669922,,5.95
1739135837.8,5.005104064941406,,6.0
1739135837.85,5.079200744628906,,6.05
1739135837.9,5.1328582763671875,,6.1
1739135837.95,5.2248382568359375,,6.15
1739135838.0,5.23760986328125,,6.2
1739135838.05,5.19928741455078,,6.25
1739135838.1,5.048545837402344,,6.3
1739135838.15,4.895240783691406,,6.35
1739135838.2,4.624412536621094,,6.4
1739135838.25,4.363800048828125,,6.45
1739135838.3,4.197723388671875,,6.5
1739135838.35,3.993324279785156,,6.55
1739135838.4,3.9524459838867183,,6.6
1739135838.45,3.9268951416015625,,6.65
1739135838.5,3.8936843872070312,,6.7
1739135838.55,3.903900146484375,,6.75
1739135838.6,3.9371185302734375,,6.8
1739135838.65,3.9754409790039062,,6.85
1739135838.7,4.0290985107421875,,6.9
1739135838.75,4.090415954589844,,6.95
1739135838.8,4.100639343261719,,7.0
1739135838.85,4.052093505859375,,7.05
1739135838.9,3.9652252197265625,,7.1
1739135838.95,3.903900146484375,,7.15
1739135839.0,3.80426025390625,,7.2
1739135839.05,3.7097244262695312,,7.25
1739135839.1,3.4772186279296875,,7.3
1739135839.15,3.280479431152344,,7.35
1739135839.2,2.927894592285156,,7.4
1739135839.25,2.5676345825195312,,7.45
1739135839.3,2.3555755615234375,,7.5
