Data Set 1:Time(s),Data Set 1:Force(N),Data Set 1:Respiration Rate(bpm),time
1727927813.0,13.745758056640623,,0.0
1727927813.05,13.354843139648438,,0.05
1727927813.1,12.843849182128906,,0.1
1727927813.15,12.56279754638672,,0.15
1727927813.2,12.23064422607422,,0.2
1727927813.25,12.100341796875,,0.25
1727927813.3,12.04668426513672,,0.3
1727927813.35,11.987922668457031,,0.35
1727927813.4,11.732421875,,0.4
1727927813.45,11.545906066894531,,0.45
1727927813.5,11.356834411621094,,0.5
1727927813.55,11.257194519042969,,0.55
1727927813.6,11.137107849121094,,0.6
1727927813.65,11.047683715820312,,0.65
1727927813.7,10.802398681640623,,0.7
1727927813.75,10.546905517578123,,0.75
1727927813.8,10.107444763183594,,0.8
1727927813.85,9.892822265625,,0.85
1727927813.9,9.759963989257812,,0.9
1727927813.95,9.76251983642578,,0.95
1727927814.0,9.831504821777344,,1.0
1727927814.05,9.882598876953123,,1.05
1727927814.1,9.954139709472656,,1.1
1727927814.15,9.969474792480469,,1.15
1727927814.2,9.923484802246092,,1.2
1727927814.25,9.890266418457031,,1.25
1727927814.3,9.931144714355469,,1.3
1727927814.35,10.20452880859375,,1.35
1727927814.4,11.282745361328123,,1.4
1727927814.45,12.281745910644531,,1.45
1727927814.5,13.6077880859375,,1.5
1727927814.55,14.236320495605469,,1.55
1727927814.6,14.905731201171877,,1.6
1727927814.65,15.28643035888672,,1.65
1727927814.7,15.897071838378906,,1.7
1727927814.75,16.27521514892578,,1.75
1727927814.8,16.68145751953125,,1.8
1727927814.85,16.8092041015625,,1.85
1727927814.9,16.689125061035156,,1.9
1727927814.95,16.323753356933594,,1.95
1727927815.0,15.554702758789062,,2.0
1727927815.05,15.258323669433594,,2.05
1727927815.1,15.39629364013672,,2.1
1727927815.15,15.587913513183594,,2.15
1727927815.2,15.598136901855469,,2.2
1727927815.25,15.42694854736328,,2.25
1727927815.3,15.128013610839844,,2.3
1727927815.35,14.91595458984375,,2.35
1727927815.4,14.484153747558594,,2.4
1727927815.45,14.172447204589844,,2.45
1727927815.5,13.814743041992188,,2.5
1727927815.55,13.732986450195312,,2.55
1727927815.6,13.888839721679688,,2.6
1727927815.65,14.060028076171877,,2.65
1727927815.7,14.259315490722656,,2.7
1727927815.75,14.274642944335938,,2.75
1727927815.8,14.03192138671875,,2.8
1727927815.85,13.855628967285156,,2.85
1727927815.9,13.669113159179688,,2.9
1727927815.95,13.495368957519531,,2.95
1727927816.0,13.163223266601562,,3.0
1727927816.05,12.976707458496094,,3.05
1727927816.1,13.117233276367188,,3.1
1727927816.15,13.543914794921877,,3.15
1727927816.2,13.916946411132812,,3.2
1727927816.25,13.801971435546877,,3.25
1727927816.3,13.564353942871094,,3.3
1727927816.35,13.503036499023438,,3.35
1727927816.4,13.505592346191406,,3.4
1727927816.45,13.48004150390625,,3.45
1727927816.5,13.426383972167969,,3.5
1727927816.55,13.4979248046875,,3.55
1727927816.6,13.538803100585938,,3.6
1727927816.65,13.321632385253906,,3.65
1727927816.7,12.67266082763672,,3.7
1727927816.75,12.161659240722656,,3.75
1727927816.8,11.558685302734377,,3.8
1727927816.85,11.2904052734375,,3.85
1727927816.9,10.917373657226562,,3.9
1727927816.95,10.628662109375,,3.95
1727927817.0,10.143211364746094,,4.0
1727927817.05,9.900489807128906,,4.05
1727927817.1,9.782958984375,,4.1
1727927817.15,9.72674560546875,,4.15
1727927817.2,9.473800659179688,,4.2
1727927817.25,9.36138153076172,,4.25
1727927817.3,9.627105712890623,,4.3
1727927817.35,9.959251403808592,,4.35
1727927817.4,10.13299560546875,,4.4
1727927817.45,10.06145477294922,,4.45
1727927817.5,10.516242980957031,,4.5
1727927817.55,11.364501953125,,4.55
1727927817.6,12.961380004882812,,4.6
1727927817.65,13.983375549316406,,4.65
1727927817.7,15.378410339355469,,4.7
1727927817.75,16.234329223632812,,4.75
1727927817.8,17.315093994140625,,4.8
1727927817.85,17.89508056640625,,4.85
1727927817.9,18.61048126220703,,4.9
1727927817.95,18.96817779541016,,4.95
1727927818.0,19.07293701171875,,5.0
1727927818.05,18.50061798095703,,5.05
1727927818.1,16.85009002685547,,5.1
1727927818.15,15.86896514892578,,5.15
1727927818.2,15.020706176757812,,5.2
1727927818.25,14.760093688964844,,5.25
1727927818.3,14.752433776855469,,5.3
1727927818.35,15.043701171875,,5.35
1727927818.4,15.914955139160156,,5.4
1727927818.45,16.51793670654297,,5.45
1727927818.5,17.04682159423828,,5.5
1727927818.55,17.113250732421875,,5.55
1727927818.6,16.949729919433594,,5.6
1727927818.65,16.89862823486328,,5.65
1727927818.7,17.202674865722656,,5.7
1727927818.75,17.499053955078125,,5.75
1727927818.8,17.483726501464844,,5.8
1727927818.85,17.210342407226562,,5.85
1727927818.9,17.023826599121094,,5.9
1727927818.95,17.164352416992188,,5.95
1727927819.0,17.50927734375,,6.0
1727927819.05,17.716232299804688,,6.05
1727927819.1,18.18124389648437,,6.1
1727927819.15,18.789329528808597,,6.15
1727927819.2,19.76278686523437,,6.2
1727927819.25,19.97740936279297,,6.25
1727927819.3,19.67591857910156,,6.3
1727927819.35,19.4229736328125,,6.35
1727927819.4,18.937522888183597,,6.4
1727927819.45,18.2451171875,,6.45
1727927819.5,16.778549194335938,,6.5
1727927819.55,15.79742431640625,,6.55
1727927819.6,14.632347106933594,,6.6
1727927819.65,14.134124755859377,,6.65
1727927819.7,14.03447723388672,,6.7
1727927819.75,14.427947998046877,,6.75
1727927819.8,14.938949584960938,,6.8
1727927819.85,14.91851043701172,,6.85
1727927819.9,14.624679565429688,,6.9
1727927819.95,14.425392150878906,,6.95
1727927820.0,14.121345520019531,,7.0
1727927820.05,14.057472229003906,,7.05
1727927820.1,14.420280456542969,,7.1
1727927820.15,14.527595520019531,,7.15
1727927820.2,13.9041748046875,,7.2
1727927820.25,13.209213256835938,,7.25
1727927820.3,12.202545166015623,,7.3
1727927820.35,11.71709442138672,,7.35
1727927820.4,11.5126953125,,7.4
1727927820.45,11.888275146484377,,7.45
1727927820.5,13.285858154296877,,7.5
1727927820.55,14.517372131347656,,7.55
1727927820.6,16.16534423828125,,7.6
1727927820.65,16.88330078125,,7.65
1727927820.7,17.08514404296875,,7.7
1727927820.75,16.796432495117188,,7.75
1727927820.8,16.668678283691406,,7.8
1727927820.85,16.870529174804688,,7.85
1727927820.9,17.036598205566406,,7.9
1727927820.95,16.947174072265625,,7.95
1727927821.0,16.466835021972656,,8.0
1727927821.05,15.702888488769531,,8.05
1727927821.1,14.463714599609377,,8.1
1727927821.15,14.047248840332031,,8.15
1727927821.2,13.840293884277344,,8.2
1727927821.25,13.901618957519531,,8.25
1727927821.3,14.116233825683594,,8.3
1727927821.35,14.241432189941406,,8.35
1727927821.4,14.297637939453123,,8.4
1727927821.45,14.098350524902344,,8.45
1727927821.5,13.564353942871094,,8.5
1727927821.55,13.359954833984377,14.029618263244627,8.55
1727927821.6,13.380393981933594,,8.6
1727927821.65,13.531143188476562,,8.65
1727927821.7,13.92205810546875,,8.7
1727927821.75,14.136672973632812,,8.75
1727927821.8,14.36407470703125,,8.8
1727927821.85,14.466270446777344,,8.85
1727927821.9,14.387069702148438,,8.9
1727927821.95,14.277198791503906,,8.95
1727927822.0,14.21588134765625,,9.0
1727927822.05,14.310417175292969,,9.05
1727927822.1,14.519927978515623,,9.1
1727927822.15,14.484153747558594,,9.15
1727927822.2,14.341079711914062,,9.2
1727927822.25,14.256759643554688,,9.25
1727927822.3,13.8658447265625,,9.3
1727927822.35,13.610343933105469,,9.35
1727927822.4,13.549026489257812,,9.4
1727927822.45,13.5362548828125,,9.45
1727927822.5,13.416168212890623,,9.5
1727927822.55,13.324188232421877,,9.55
1727927822.6,13.311408996582031,,9.6
1727927822.65,13.380393981933594,,9.65
1727927822.7,13.15044403076172,,9.7
1727927822.75,12.802963256835938,,9.75
1727927822.8,12.343063354492188,,9.8
1727927822.85,12.072235107421877,,9.85
1727927822.9,11.755416870117188,,9.9
1727927822.95,11.609779357910156,,9.95
1727927823.0,11.525466918945312,,10.0
1727927823.05,11.522911071777344,,10.05
1727927823.1,11.430931091308594,,10.1
1727927823.15,11.338951110839844,,10.15
1727927823.2,11.341506958007812,,10.2
1727927823.25,11.479476928710938,,10.25
1727927823.3,11.834625244140623,,10.3
1727927823.35,12.125892639160156,,10.35
1727927823.4,12.59600830078125,,10.4
1727927823.45,13.017585754394531,,10.45
1727927823.5,13.781532287597656,,10.5
1727927823.55,14.037033081054688,,10.55
1727927823.6,13.88372802734375,,10.6
1727927823.65,13.6077880859375,,10.65
1727927823.7,13.07635498046875,,10.7
1727927823.75,12.626670837402344,,10.75
1727927823.8,11.90105438232422,,10.8
1727927823.85,11.576568603515623,,10.85
1727927823.9,11.326179504394531,,10.9
1727927823.95,11.065567016601562,,10.95
1727927824.0,10.439590454101562,,11.0
1727927824.05,10.02312469482422,,11.05
1727927824.1,9.17230987548828,,11.1
1727927824.15,8.51312255859375,,11.15
1727927824.2,7.894813537597656,,11.2
1727927824.25,7.779838562011719,,11.25
1727927824.3,7.889701843261719,,11.3
1727927824.35,8.065994262695312,,11.35
1727927824.4,8.357269287109375,,11.4
1727927824.45,8.520790100097656,,11.45
1727927824.5,8.720077514648438,,11.5
1727927824.55,8.799278259277344,,11.55
1727927824.6,8.896369934082031,,11.6
1727927824.65,9.003684997558594,,11.65
1727927824.7,9.2310791015625,,11.7
1727927824.75,9.292396545410156,,11.75
1727927824.8,9.146759033203123,,11.8
1727927824.85,9.047119140625,,11.85
1727927824.9,9.164649963378906,,11.9
1727927824.95,9.647544860839846,,11.95
1727927825.0,10.953147888183594,,12.0
1727927825.05,11.837173461914062,,12.05
1727927825.1,12.831069946289062,,12.1
1727927825.15,13.288414001464844,,12.15
1727927825.2,13.858184814453123,,12.2
1727927825.25,14.25420379638672,,12.25
1727927825.3,14.737098693847656,,12.3
1727927825.35,14.890403747558594,,12.35
1727927825.4,14.903175354003906,,12.4
1727927825.45,15.005378723144531,,12.45
1727927825.5,15.255767822265623,,12.5
1727927825.55,14.967048645019531,,12.55
1727927825.6,13.860733032226562,,12.6
1727927825.65,13.191329956054688,,12.65
1727927825.7,12.475929260253906,,12.7
1727927825.75,12.074790954589844,,12.75
1727927825.8,11.632774353027344,,12.8
1727927825.85,11.535690307617188,,12.85
1727927825.9,11.510139465332031,,12.9
1727927825.95,11.390052795410156,,12.95
1727927826.0,11.16010284423828,,13.0
1727927826.05,11.203536987304688,,13.05
1727927826.1,11.45903778076172,,13.1
1727927826.15,11.482032775878906,,13.15
1727927826.2,11.231643676757812,,13.2
1727927826.25,11.111557006835938,,13.25
1727927826.3,11.116668701171877,,13.3
1727927826.35,11.149879455566406,,13.35
1727927826.4,11.38494110107422,,13.4
1727927826.45,11.745193481445312,,13.45
1727927826.5,12.169326782226562,,13.5
1727927826.55,12.18976593017578,,13.55
1727927826.6,12.036468505859377,,13.6
1727927826.65,11.926605224609377,,13.65
1727927826.7,11.86016845703125,,13.7
1727927826.75,11.837173461914062,,13.75
1727927826.8,11.71453857421875,,13.8
1727927826.85,11.64044189453125,,13.85
1727927826.9,11.64044189453125,,13.9
1727927826.95,11.60211944580078,,13.95
1727927827.0,11.361946105957031,,14.0
1727927827.05,11.152435302734377,,14.05
1727927827.1,10.90204620361328,,14.1
1727927827.15,10.733413696289062,,14.15
1727927827.2,10.475364685058594,,14.2
1727927827.25,10.636329650878906,,14.25
1727927827.3,11.9521484375,,14.3
1727927827.35,13.324188232421877,,14.35
1727927827.4,15.253211975097656,,14.4
1727927827.45,16.25732421875,,14.45
1727927827.5,17.5450439453125,,14.5
1727927827.55,18.20679473876953,,14.55
1727927827.6,18.50572967529297,,14.6
1727927827.65,18.086708068847656,,14.65
1727927827.7,17.228225708007812,,14.7
1727927827.75,16.929290771484375,,14.75
1727927827.8,16.431068420410156,,14.8
1727927827.85,15.889404296875,,14.85
1727927827.9,15.35796356201172,,14.9
1727927827.95,15.327308654785156,,14.95
1727927828.0,15.296646118164062,,15.0
1727927828.05,15.17400360107422,,15.05
1727927828.1,14.872520446777344,,15.1
1727927828.15,14.69622039794922,,15.15
1727927828.2,14.611907958984377,,15.2
1727927828.25,14.594024658203123,,15.25
1727927828.3,14.499488830566406,,15.3
1727927828.35,14.32830047607422,,15.35
1727927828.4,13.77386474609375,,15.4
1727927828.45,13.40338897705078,,15.45
1727927828.5,13.290969848632812,,15.5
1727927828.55,13.40338897705078,,15.55
1727927828.6,13.526031494140623,,15.6
1727927828.65,13.58734893798828,,15.65
1727927828.7,13.84796142578125,,15.7
1727927828.75,14.157119750976562,,15.75
1727927828.8,14.3819580078125,,15.8
1727927828.85,14.243988037109377,,15.85
1727927828.9,14.02936553955078,,15.9
1727927828.95,13.968048095703123,,15.95
1727927829.0,13.942497253417969,,16.0
1727927829.05,13.92205810546875,,16.05
1727927829.1,13.85051727294922,,16.1
1727927829.15,13.860733032226562,,16.15
1727927829.2,13.801971435546877,,16.2
1727927829.25,13.579689025878906,,16.25
1727927829.3,13.301193237304688,,16.3
1727927829.35,13.416168212890623,,16.35
1727927829.4,13.85051727294922,,16.4
1727927829.45,13.965492248535156,,16.45
1727927829.5,13.80963897705078,,16.5
1727927829.55,13.697219848632812,,16.55
1727927829.6,13.814743041992188,,16.6
1727927829.65,14.100906372070312,,16.65
1727927829.7,14.2720947265625,,16.7
1727927829.75,13.801971435546877,,16.75
1727927829.8,12.641998291015623,,16.8
1727927829.85,12.041580200195312,,16.85
1727927829.9,11.464149475097656,,16.9
1727927829.95,11.152435302734377,,16.95
1727927830.0,10.485580444335938,,17.0
1727927830.05,10.025680541992188,,17.05
1727927830.1,9.713973999023438,,17.1
1727927830.15,9.785514831542969,,17.15
1727927830.2,10.018020629882812,,17.2
1727927830.25,10.110000610351562,,17.25
1727927830.3,10.107444763183594,,17.3
1727927830.35,10.051231384277344,,17.35
1727927830.4,10.06145477294922,,17.4
1727927830.45,10.087005615234377,,17.45
1727927830.5,10.2249755859375,,17.5
1727927830.55,10.470252990722656,,17.55
1727927830.6,10.787071228027344,,17.6
1727927830.65,10.86627960205078,,17.65
1727927830.7,11.034904479980469,,17.7
1727927830.75,11.188209533691406,,17.75
1727927830.8,11.193313598632812,,17.8
1727927830.85,11.001693725585938,,17.85
1727927830.9,10.672096252441406,,17.9
1727927830.95,10.64654541015625,,17.95
1727927831.0,11.08856201171875,,18.0
1727927831.05,11.617446899414062,,18.05
1727927831.1,12.544914245605469,,18.1
1727927831.15,12.984375,,18.15
1727927831.2,12.810630798339844,,18.2
1727927831.25,12.166770935058594,,18.25
1727927831.3,10.884162902832031,,18.3
1727927831.35,10.201980590820312,,18.35
1727927831.4,9.706306457519531,,18.4
1727927831.45,9.5989990234375,,18.45
1727927831.5,9.759963989257812,,18.5
1727927831.55,10.176429748535156,13.11953353881836,18.55
1727927831.6,11.257194519042969,,18.6
1727927831.65,12.131004333496094,,18.65
1727927831.7,13.48004150390625,,18.7
1727927831.75,14.448387145996094,,18.75
1727927831.8,16.16790008544922,,18.8
1727927831.85,17.49139404296875,,18.85
1727927831.9,19.47407531738281,,18.9
1727927831.95,20.60848999023437,,18.95
1727927832.0,21.72247314453125,,19.0
1727927832.05,21.408203125,,19.05
1727927832.1,19.239013671875,,19.1
1727927832.15,17.95384979248047,,19.15
1727927832.2,17.45050811767578,,19.2
1727927832.25,17.63957977294922,,19.25
1727927832.3,18.12247467041016,,19.3
1727927832.35,18.643699645996097,,19.35
1727927832.4,19.62481689453125,,19.4
1727927832.45,19.987625122070312,,19.45
1727927832.5,19.58649444580078,,19.5
1727927832.55,18.90174865722656,,19.55
1727927832.6,17.999839782714844,,19.6
1727927832.65,17.70856475830078,,19.65
1727927832.7,17.665130615234375,,19.7
1727927832.75,17.846534729003906,,19.75
1727927832.8,18.288551330566406,,19.8
1727927832.85,18.55937957763672,,19.85
1727927832.9,18.643699645996097,,19.9
1727927832.95,18.46739959716797,,19.95
1727927833.0,18.344764709472656,,20.0
1727927833.05,18.27832794189453,,20.05
1727927833.1,18.035606384277344,,20.1
1727927833.15,17.93085479736328,,20.15
1727927833.2,17.902748107910156,,20.2
1727927833.25,17.877197265625,,20.25
1727927833.3,17.534828186035156,,20.3
1727927833.35,17.146469116210938,,20.35
1727927833.4,16.615028381347656,,20.4
1727927833.45,16.290542602539062,,20.45
1727927833.5,15.708000183105469,,20.5
1727927833.55,15.370742797851562,,20.55
1727927833.6,15.115242004394531,,20.6
1727927833.65,14.867408752441406,,20.65
1727927833.7,14.259315490722656,,20.7
1727927833.75,13.868400573730469,,20.75
1727927833.8,13.528587341308594,,20.8
1727927833.85,13.500480651855469,,20.85
1727927833.9,13.380393981933594,,20.9
1727927833.95,13.04058074951172,,20.95
1727927834.0,12.363510131835938,,21.0
1727927834.05,12.0645751953125,,21.05
1727927834.1,12.018585205078123,,21.1
1727927834.15,12.151443481445312,,21.15
1727927834.2,12.131004333496094,,21.2
1727927834.25,11.732421875,,21.25
1727927834.3,10.677207946777344,,21.3
1727927834.35,9.9669189453125,,21.35
1727927834.4,9.167198181152346,,21.4
1727927834.45,8.819725036621094,,21.45
1727927834.5,8.551445007324219,,21.5
1727927834.55,8.6051025390625,,21.55
1727927834.6,8.960243225097656,,21.6
1727927834.65,9.254074096679688,,21.65
1727927834.7,9.58111572265625,,21.7
1727927834.75,9.719085693359377,,21.75
1727927834.8,9.892822265625,,21.8
1727927834.85,9.959251403808592,,21.85
1727927834.9,10.081893920898438,,21.9
1727927834.95,10.153434753417969,,21.95
1727927835.0,10.000129699707031,,22.0
1727927835.05,9.811065673828123,,22.05
1727927835.1,9.808509826660156,,22.1
1727927835.15,10.005241394042969,,22.15
1727927835.2,10.526458740234377,,22.2
1727927835.25,11.080894470214844,,22.25
1727927835.3,12.325180053710938,,22.3
1727927835.35,13.288414001464844,,22.35
1727927835.4,14.522483825683594,,22.4
1727927835.45,15.189338684082031,,22.45
1727927835.5,16.00182342529297,,22.5
1727927835.55,16.272659301757812,,22.55
1727927835.6,16.377410888671875,,22.6
1727927835.65,16.57415008544922,,22.65
1727927835.7,17.246109008789062,,22.7
1727927835.75,17.59870147705078,,22.75
1727927835.8,17.23333740234375,,22.8
1727927835.85,16.50005340576172,,22.85
1727927835.9,15.631355285644531,,22.9
1727927835.95,15.516380310058594,,22.95
1727927836.0,15.840858459472656,,23.0
1727927836.05,16.121910095214844,,23.05
1727927836.1,16.318649291992188,,23.1
1727927836.15,16.267547607421875,,23.15
1727927836.2,15.899627685546877,,23.2
1727927836.25,15.521484375,,23.25
1727927836.3,15.06158447265625,,23.3
1727927836.35,14.938949584960938,,23.35
1727927836.4,15.002822875976562,,23.4
1727927836.45,15.13823699951172,,23.45
1727927836.5,15.401405334472656,,23.5
1727927836.55,15.562370300292969,,23.55
1727927836.6,15.549591064453123,,23.6
1727927836.65,15.276206970214844,,23.65
1727927836.7,14.645118713378906,,23.7
1727927836.75,14.371734619140623,,23.75
1727927836.8,14.187774658203123,,23.8
1727927836.85,14.10346221923828,,23.85
1727927836.9,14.394729614257812,,23.9
1727927836.95,14.933837890625,,23.95
1727927837.0,15.513824462890623,,24.0
1727927837.05,15.342636108398438,,24.05
1727927837.1,14.412612915039062,,24.1
1727927837.15,13.791748046875,,24.15
1727927837.2,13.26031494140625,,24.2
1727927837.25,13.066131591796877,,24.25
1727927837.3,12.859176635742188,,24.3
1727927837.35,12.785079956054688,,24.35
1727927837.4,12.68798828125,,24.4
1727927837.45,12.527023315429688,,24.45
1727927837.5,12.11566925048828,,24.5
1727927837.55,11.89849853515625,,24.55
1727927837.6,11.926605224609377,,24.6
1727927837.65,12.056907653808594,,24.65
1727927837.7,12.210205078125,,24.7
1727927837.75,12.3583984375,,24.75
1727927837.8,12.685440063476562,,24.8
1727927837.85,12.790191650390623,,24.85
1727927837.9,12.401832580566406,,24.9
1727927837.95,11.832069396972656,,24.95
1727927838.0,10.958259582519531,,25.0
1727927838.05,10.48046875,,25.05
1727927838.1,9.94903564453125,,25.1
1727927838.15,9.754852294921877,,25.15
1727927838.2,9.7088623046875,,25.2
1727927838.25,9.869827270507812,,25.25
1727927838.3,10.472808837890623,,25.3
1727927838.35,11.16521453857422,,25.35
1727927838.4,12.608787536621094,,25.4
1727927838.45,13.671669006347656,,25.45
1727927838.5,15.051368713378906,,25.5
1727927838.55,15.789764404296877,,25.55
1727927838.6,16.819427490234375,,25.6
1727927838.65,17.522048950195312,,25.65
1727927838.7,18.53638458251953,,25.7
1727927838.75,19.0908203125,,25.75
1727927838.8,19.361648559570312,,25.8
1727927838.85,18.90941619873047,,25.85
1727927838.9,17.412185668945312,,25.9
1727927838.95,16.300758361816406,,25.95
1727927839.0,15.31708526611328,,26.0
1727927839.05,15.122909545898438,,26.05
1727927839.1,15.051368713378906,,26.1
