Data Set 1:Time(s),Data Set 1:Force(N),Data Set 1:Respiration Rate(bpm),time
1724272437.2,5.669410705566406,,0.0
1724272437.25,5.378135681152344,,0.05
1724272437.3,5.05364990234375,,0.1
1724272437.35,4.882469177246094,,0.15
1724272437.4,4.665290832519531,,0.2
1724272437.45,4.547760009765625,,0.25
1724272437.5,4.494110107421875,,0.3
1724272437.55,4.606529235839844,,0.35
1724272437.6,4.90802001953125,,0.4
1724272437.65,5.08942413330078,,0.45
1724272437.7,5.429237365722656,,0.5
1724272437.75,5.758834838867188,,0.55
1724272437.8,6.487007141113281,,0.6
1724272437.85,7.102760314941406,,0.65
1724272437.9,8.140090942382812,,0.7
1724272437.95,8.852935791015625,,0.75
1724272438.0,9.98480224609375,,0.8
1724272438.05,10.889274597167969,,0.85
1724272438.1,12.309852600097656,,0.9
1724272438.15,13.137672424316406,,0.95
1724272438.2,14.10601806640625,,1.0
1724272438.25,14.624679565429688,,1.05
1724272438.3,15.32219696044922,,1.1
1724272438.35,15.86896514892578,,1.15
1724272438.4,17.016159057617188,,1.2
1724272438.45,17.994728088378906,,1.25
1724272438.5,19.379539489746097,,1.3
1724272438.55,20.08727264404297,,1.35
1724272438.6,20.682586669921875,,1.4
1724272438.65,20.590606689453125,,1.45
1724272438.7,20.018287658691406,,1.5
1724272438.75,19.62481689453125,,1.55
1724272438.8,18.76377868652344,,1.6
1724272438.85,17.578262329101562,,1.65
1724272438.9,15.130569458007812,,1.7
1724272438.95,13.352294921875,,1.75
1724272439.0,10.810066223144531,,1.8
1724272439.05,9.409927368164062,,1.85
1724272439.1,7.930580139160157,,1.9
1724272439.15,7.307159423828125,,1.95
1724272439.2,6.647972106933594,,2.0
1724272439.25,6.3285980224609375,,2.05
1724272439.3,5.8814697265625,,2.1
1724272439.35,5.610641479492188,,2.15
1724272439.4,5.245277404785156,,2.2
1724272439.45,5.045989990234375,,2.25
1724272439.5,4.836479187011719,,2.3
1724272439.55,4.690841674804688,,2.35
1724272439.6,4.494110107421875,,2.4
1724272439.65,4.4097900390625,,2.45
1724272439.7,4.361244201660156,,2.5
1724272439.75,4.4097900390625,,2.55
1724272439.8,4.509437561035156,,2.6
1724272439.85,4.545204162597656,,2.65
1724272439.9,4.588645935058594,,2.7
1724272439.95,4.606529235839844,,2.75
1724272440.0,4.596305847167969,,2.8
1724272440.05,4.634635925292969,,2.85
1724272440.1,4.900352478027344,,2.9
1724272440.15,5.186515808105469,,2.95
1724272440.2,5.595314025878906,,3.0
1724272440.25,5.884025573730469,,3.05
1724272440.3,6.504890441894531,,3.1
1724272440.35,7.033775329589844,,3.15
1724272440.4,7.956130981445312,,3.2
1724272440.45,8.638313293457031,,3.25
1724272440.5,9.719085693359377,,3.3
1724272440.55,10.419151306152344,,3.35
1724272440.6,11.497360229492188,,3.4
1724272440.65,12.281745910644531,,3.45
1724272440.7,13.55158233642578,,3.5
1724272440.75,14.40239715576172,,3.55
1724272440.8,15.662010192871094,,3.6
1724272440.85,16.66613006591797,,3.65
1724272440.9,18.88897705078125,,3.7
1724272440.95,20.74901580810547,,3.75
1724272441.0,22.892662048339844,,3.8
1724272441.05,23.39855194091797,,3.85
1724272441.1,23.09195327758789,,3.9
1724272441.15,22.555400848388672,,3.95
1724272441.2,21.564064025878903,,4.0
1724272441.25,20.92786407470703,,4.05
1724272441.3,19.870094299316406,,4.1
1724272441.35,18.77655792236328,,4.15
1724272441.4,16.364639282226562,,4.2
1724272441.45,14.535255432128906,,4.25
1724272441.5,11.93682098388672,,4.3
1724272441.55,10.4447021484375,,4.35
1724272441.6,8.67919921875,,4.4
1724272441.65,7.77472686767578,,4.45
1724272441.7,6.80126953125,,4.5
1724272441.75,6.315818786621094,,4.55
1724272441.8,5.728172302246094,,4.6
1724272441.85,5.41901397705078,,4.65
1724272441.9,5.056205749511719,,4.7
1724272441.95,4.887580871582031,,4.75
1724272442.0,4.75982666015625,,4.8
1724272442.05,4.7189483642578125,,4.85
1724272442.1,4.680625915527344,,4.9
1724272442.15,4.6627349853515625,,4.95
1724272442.2,4.639739990234375,,5.0
1724272442.25,4.6448516845703125,,5.05
1724272442.3,4.647407531738281,,5.1
1724272442.35,4.616744995117188,,5.15
1724272442.4,4.5528717041015625,,5.2
1724272442.45,4.494110107421875,,5.25
1724272442.5,4.384239196777344,,5.3
1724272442.55,4.35358428955078,,5.35
1724272442.6,4.417457580566406,,5.4
1724272442.65,4.48388671875,,5.45
1724272442.7,4.5528717041015625,,5.5
1724272442.75,4.647407531738281,,5.55
1724272442.8,5.033210754394531,,5.6
1724272442.85,5.38835906982422,,5.65
1724272442.9,5.9146881103515625,,5.7
1724272442.95,6.315818786621094,,5.75
1724272443.0,7.056770324707031,,5.8
1724272443.05,7.634201049804688,,5.85
1724272443.1,8.551445007324219,,5.9
1724272443.15,9.190193176269531,,5.95
1724272443.2,10.324615478515623,,6.0
1724272443.25,11.262298583984377,,6.05
1724272443.3,13.048248291015623,,6.1
1724272443.35,14.333412170410156,,6.15
1724272443.4,16.014602661132812,,6.2
1724272443.45,16.908851623535156,,6.25
1724272443.5,17.96662139892578,,6.3
1724272443.55,18.561935424804688,,6.35
1724272443.6,19.37442779541016,,6.4
1724272443.65,19.80877685546875,,6.45
1724272443.7,19.99529266357422,,6.5
1724272443.75,19.84709930419922,,6.55
1724272443.8,19.60437774658203,,6.6
1724272443.85,19.502174377441406,,6.65
1724272443.9,19.30799865722656,,6.7
1724272443.95,19.024391174316406,,6.75
1724272444.0,18.201683044433597,,6.8
1724272444.05,17.317649841308594,,6.85
1724272444.1,15.700340270996094,,6.9
1724272444.15,14.502044677734377,,6.95
1724272444.2,12.350730895996094,,7.0
1724272444.25,10.838172912597656,,7.05
1724272444.3,8.888710021972656,,7.1
1724272444.35,7.897369384765625,,7.15
1724272444.4,6.9264678955078125,,7.2
1724272444.45,6.530441284179688,,7.25
1724272444.5,6.142082214355469,,7.3
1724272444.55,5.940238952636719,,7.35
1724272444.6,5.641304016113281,,7.4
1724272444.65,5.480339050292969,,7.45
1724272444.7,5.332145690917969,,7.5
1724272444.75,5.2606048583984375,,7.55
1724272444.8,5.168624877929688,,7.6
1724272444.85,5.132858276367188,,7.65
1724272444.9,5.074089050292969,,7.7
1724272444.95,5.022994995117188,,7.75
1724272445.0,5.061317443847656,,7.8
1724272445.05,5.166069030761719,,7.85
1724272445.1,5.362808227539063,,7.9
1724272445.15,5.503334045410156,,7.95
1724272445.2,5.533988952636719,,8.0
1724272445.25,5.426681518554688,,8.05
1724272445.3,5.327033996582031,,8.1
1724272445.35,5.324485778808594,,8.15
1724272445.4,5.296379089355469,,8.2
1724272445.45,5.250389099121094,,8.25
1724272445.5,5.158409118652344,,8.3
1724272445.55,5.071540832519531,,8.35
1724272445.6,4.959114074707031,,8.4
1724272445.65,4.900352478027344,,8.45
1724272445.7,4.826255798339844,,8.5
1724272445.75,4.780265808105469,,8.55
1724272445.8,4.711280822753906,,8.6
1724272445.85,4.655075073242188,,8.65
1724272445.9,4.583534240722656,,8.7
1724272445.95,4.578422546386719,,8.75
1724272446.0,4.5707550048828125,,8.8
1724272446.05,4.532432556152344,,8.85
1724272446.1,4.476219177246094,,8.9
1724272446.15,4.440452575683594,,8.95
1724272446.2,4.42767333984375,,9.0
1724272446.25,4.476219177246094,,9.05
1724272446.3,4.586090087890625,,9.1
1724272446.35,4.68317413330078,,9.15
1724272446.4,4.867134094238281,,9.2
1724272446.45,5.01788330078125,,9.25
1724272446.5,5.268272399902344,,9.3
1724272446.55,5.431793212890625,,9.35
1724272446.6,5.7026214599609375,,9.4
1724272446.65,5.871253967285156,,9.45
1724272446.7,6.090980529785156,,9.5
1724272446.75,6.2263946533203125,,9.55
1724272446.8,6.354148864746094,,9.6
