Data Set 1:Time(s),Data Set 1:Force(N),Data Set 1:Respiration Rate(bpm),time
1720757932.45,6.82170867919922,,0.0
1720757932.5,6.494674682617188,,0.05
1720757932.55,6.269828796386719,,0.1
1720757932.6,5.942794799804688,,0.15
1720757932.65,5.769050598144531,,0.2
1720757932.7,5.67707061767578,,0.25
1720757932.75,5.769050598144531,,0.3
1720757932.8,6.1906280517578125,,0.35
1720757932.85,6.663299560546875,,0.4
1720757932.9,7.44768524169922,,0.45
1720757932.95,7.864151000976563,,0.5
1720757933.0,8.326606750488281,,0.55
1720757933.05,8.727745056152344,,0.6
1720757933.1,9.550453186035156,,0.65
1720757933.15,10.13043975830078,,0.7
1720757933.2,11.029800415039062,,0.75
1720757933.25,11.648109436035156,,0.8
1720757933.3,12.613899230957031,,0.85
1720757933.35,13.165779113769531,,0.9
1720757933.4,13.761093139648438,,0.95
1720757933.45,14.111129760742188,,1.0
1720757933.5,14.576133728027344,,1.05
1720757933.55,14.76520538330078,,1.1
1720757933.6,14.800979614257812,,1.15
1720757933.65,14.708999633789062,,1.2
1720757933.7,14.65534210205078,,1.25
1720757933.75,14.65534210205078,,1.3
1720757933.8,14.58124542236328,,1.35
1720757933.85,14.453498840332031,,1.4
1720757933.9,14.210769653320312,,1.45
1720757933.95,14.026809692382812,,1.5
1720757934.0,13.500480651855469,,1.55
1720757934.05,12.900054931640623,,1.6
1720757934.1,11.56890106201172,,1.65
1720757934.15,10.5928955078125,,1.7
1720757934.2,9.371604919433594,,1.75
1720757934.25,8.796730041503906,,1.8
1720757934.3,8.111984252929688,,1.85
1720757934.35,7.6801910400390625,,1.9
1720757934.4,7.15130615234375,,1.95
1720757934.45,6.9085845947265625,,2.0
1720757934.5,6.663299560546875,,2.05
1720757934.55,6.532997131347656,,2.1
1720757934.6,6.361808776855469,,2.15
1720757934.65,6.285163879394531,,2.2
1720757934.7,6.246833801269531,,2.25
1720757934.75,6.239173889160156,,2.3
1720757934.8,6.1727447509765625,,2.35
1720757934.85,6.067985534667969,,2.4
1720757934.9,5.868698120117188,,2.45
1720757934.95,5.738395690917969,,2.5
1720757935.0,5.544212341308594,,2.55
1720757935.05,5.396018981933594,,2.6
1720757935.1,5.171180725097656,,2.65
1720757935.15,5.063873291015625,,2.7
1720757935.2,4.984664916992188,,2.75
1720757935.25,4.959114074707031,,2.8
1720757935.3,4.946342468261719,,2.85
1720757935.35,4.9770050048828125,,2.9
1720757935.4,5.0868682861328125,,2.95
1720757935.45,5.168624877929688,,3.0
1720757935.5,5.3449249267578125,,3.05
1720757935.55,5.659187316894531,,3.1
1720757935.6,6.407798767089844,,3.15
1720757935.65,6.826820373535156,,3.2
1720757935.7,7.233070373535157,,3.25
1720757935.75,7.465568542480469,,3.3
1720757935.8,7.861595153808594,,3.35
1720757935.85,8.221855163574219,,3.4
1720757935.9,8.855491638183594,,3.45
1720757935.95,9.28728485107422,,3.5
1720757936.0,9.867271423339846,18.012008666992188,3.55
1720757936.05,10.222419738769531,,3.6
1720757936.1,10.871383666992188,,3.65
1720757936.15,11.407936096191406,,3.7
1720757936.2,12.294525146484377,,3.75
1720757936.25,12.869400024414062,,3.8
1720757936.3,13.538803100585938,,3.85
1720757936.35,13.9041748046875,,3.9
1720757936.4,14.484153747558594,,3.95
1720757936.45,14.857185363769531,,4.0
1720757936.5,15.28131866455078,,4.05
1720757936.55,15.39629364013672,,4.1
1720757936.6,15.444839477539062,,4.15
1720757936.65,15.559814453125,,4.2
1720757936.7,15.697784423828123,,4.25
1720757936.75,15.593025207519531,,4.3
1720757936.8,15.13312530517578,,4.35
1720757936.85,14.775428771972656,,4.4
1720757936.9,14.407508850097656,,4.45
1720757936.95,14.266983032226562,,4.5
1720757937.0,14.121345520019531,,4.55
1720757937.05,14.008926391601562,,4.6
1720757937.1,13.492813110351562,,4.65
1720757937.15,12.772308349609377,,4.7
1720757937.2,11.410491943359377,,4.75
1720757937.25,10.641433715820312,,4.8
1720757937.3,9.826393127441406,,4.85
1720757937.35,9.39714813232422,,4.9
1720757937.4,8.8631591796875,,4.95
1720757937.45,8.602546691894531,,5.0
1720757937.5,8.318939208984375,,5.05
1720757937.55,8.157974243164062,,5.1
1720757937.6,7.9101409912109375,,5.15
1720757937.65,7.731292724609375,,5.2
1720757937.7,7.537109375,,5.25
1720757937.75,7.434913635253905,,5.3
1720757937.8,7.28160858154297,,5.35
1720757937.85,7.217735290527344,,5.4
1720757937.9,7.143638610839844,,5.45
1720757937.95,7.059326171875,,5.5
1720757938.0,6.865150451660156,,5.55
1720757938.05,6.729728698730469,,5.6
1720757938.1,6.59942626953125,,5.65
1720757938.15,6.578987121582031,,5.7
1720757938.2,6.56365966796875,,5.75
1720757938.25,6.52532958984375,,5.8
1720757938.3,6.41546630859375,,5.85
1720757938.35,6.331153869628906,,5.9
1720757938.4,6.269828796386719,,5.95
1720757938.45,6.310714721679688,,6.0
1720757938.5,6.584098815917969,,6.05
1720757938.55,6.9545745849609375,,6.1
1720757938.6,7.644424438476563,,6.15
1720757938.65,8.096656799316406,,6.2
1720757938.7,8.745628356933594,,6.25
1720757938.75,9.087997436523438,,6.3
1720757938.8,9.43036651611328,,6.35
1720757938.85,9.61432647705078,,6.4
1720757938.9,9.887710571289062,,6.45
1720757938.95,10.107444763183594,,6.5
1720757939.0,10.633773803710938,,6.55
1720757939.05,11.121780395507812,,6.6
1720757939.1,11.90105438232422,,6.65
1720757939.15,12.345619201660156,,6.7
1720757939.2,12.89239501953125,,6.75
1720757939.25,13.252647399902344,,6.8
1720757939.3,13.88628387451172,,6.85
1720757939.35,14.264427185058594,,6.9
1720757939.4,14.73199462890625,,6.95
1720757939.45,15.066696166992188,,7.0
1720757939.5,15.5955810546875,,7.05
1720757939.55,15.937950134277344,,7.1
1720757939.6,16.362083435058594,,7.15
1720757939.65,16.49494171142578,,7.2
1720757939.7,16.436180114746094,,7.25
1720757939.75,16.280319213867188,,7.3
1720757939.8,15.953285217285156,,7.35
1720757939.85,15.736106872558594,,7.4
1720757939.9,15.495933532714844,,7.45
1720757939.95,15.373298645019531,,7.5
1720757940.0,15.053924560546877,,7.55
1720757940.05,14.617019653320312,,7.6
1720757940.1,13.47748565673828,,7.65
1720757940.15,12.478485107421877,,7.7
1720757940.2,11.119224548339844,,7.75
1720757940.25,10.49835968017578,,7.8
1720757940.3,9.859603881835936,,7.85
1720757940.35,9.491683959960936,,7.9
1720757940.4,8.937248229980469,,7.95
1720757940.45,8.607658386230469,,8.0
1720757940.5,8.321495056152344,,8.05
1720757940.55,8.2371826171875,,8.1
1720757940.6,8.117095947265625,,8.15
1720757940.65,8.022560119628906,,8.2
1720757940.7,7.917808532714843,,8.25
1720757940.75,7.894813537597656,,8.3
1720757940.8,7.864151000976563,,8.35
1720757940.85,7.81560516357422,,8.4
1720757940.9,7.692970275878905,,8.45
1720757940.95,7.57288360595703,,8.5
1720757941.0,7.363372802734375,,8.55
1720757941.05,7.233070373535157,,8.6
1720757941.1,7.112983703613281,,8.65
1720757941.15,7.059326171875,,8.7
1720757941.2,6.96734619140625,,8.75
1720757941.25,6.93157958984375,,8.8
1720757941.3,6.936683654785156,,8.85
